9,22888
2009,22658
4010,23109
6166,22872
8989,22696
10989,22350
12992,23893
14994,24531
17563,25776
20118,27977
22125,27663
24676,25653
26841,25472
28842,25276
30842,22960
32844,22650
34848,21391
37530,21110
40312,20361
42870,20627
44871,20257
46873,20721
48875,20555
50877,20592
52877,21105
54878,20658
57457,20375
59457,20761
62022,20757
64026,20406
66028,20631
68032,20687
70033,21220
72033,22245
74035,22253
76108,18890
78111,14224
80112,11271
82113,19210
84116,34044
86117,46723
88120,63224
90121,63192
92123,63130
94123,48593
96125,27420
98125,7869
100126,5121
102127,9713
104130,13987
106130,19894
108130,20273
110131,20933
112135,20635
114136,19984
116138,20086
118141,20019
120142,20335
122145,20351
124146,20242
126149,21261
128150,21573
130151,63135
132155,50540
134158,21516
136160,22568
138163,21997
140166,22168
142170,22456
144171,22312
146172,22994
148173,23600
150174,24324
152176,24689
154176,24499
156176,25410
158177,25235
160180,26241
162183,26564
164185,25976
166187,63129
168191,52683
170193,28905
172196,29388
174199,29686
176201,31045
178202,31212
180206,31661
182206,32013
184209,33101
186212,34501
188212,34541
190216,35667
192217,36265
194218,35701
196218,37101
198219,37055
200219,36959
202222,36588
204225,34967
206228,34992
208231,33656
210232,32291
212232,31741
214233,30002
216235,29539
218235,28533
220239,27131
222242,27338
224243,26726
226246,26594
228248,26171
230252,25884
232255,26205
234258,25519
236270,26270
238270,25310
240274,25264
242276,25562
244277,25876
246277,26616
248278,26454
250278,25790
252279,26235
254282,25625
256285,26555
258285,26396
260286,26101
262286,26633
264289,25798
266292,26174
268293,26438
270293,26136
272293,26603
274296,25784
276296,25687
278298,25396
280298,24282
282300,25053
284302,24699
286305,25001
288309,25048
290312,24583
292316,4617
294319,17748
296319,24796
298322,22995
300326,22428
302329,22926
304332,22864
306334,22788
308334,22482
310338,22364
312340,23615
314344,23698
316344,25898
318347,27624
320350,27798
322350,27946
324353,25943
326353,25348
328356,25467
330359,23570
332359,22991
334360,21661
336361,21247
338365,21077
340366,19928
342367,20623
344369,20523
346371,20581
348371,20771
350371,20217
352374,21046
354412,20681
356415,21076
358415,20685
360415,20327
362415,20777
364418,20398
366418,20619
368419,20700
370422,21271
372422,22315
374424,22300
376428,18729
378429,13827
380429,11030
382432,19547
384433,37055
386435,45923
388435,63145
390436,63207
392438,63304
394441,47797
396444,19725
398444,7662
400444,5051
402447,10777
404450,13877
406453,19894
408455,20865
410457,20628
412460,20802
414462,20040
416462,19868
418464,20478
420465,19912
422466,20384
424468,20534
426471,61247
428475,63183
430475,24858
432478,21424
434482,20909
436485,22284
438489,22332
440492,21682
442495,22596
444498,22592
446500,22662
448502,24040
450503,23907
452503,24691
454503,24965
456505,24895
458508,25619
460508,26079
462508,26532
464510,26484
466513,27029
468516,28182
470519,27939
472521,29258
474522,30395
476522,30299
478522,31692
480524,31661
482527,31699
484528,33752
486529,33892
488530,34976
490533,35656
492535,35926
494537,36456
496541,36359
498543,37428
500546,37085
502546,36035
504547,35517
506547,34277
508548,33977
510548,32149
512551,31414
514551,30688
516553,28695
518555,28831
520555,27163
522555,26972
524556,27355
526560,25962
528563,26299
530563,26028
532566,25793
534569,26289
536571,25635
538572,25563
540574,25355
542574,24995
544574,26578
546574,26165
548574,26472
550577,26092
552581,25671
554581,26243
556583,26187
558587,26378
560590,26536
562593,25963
564593,26386
566595,25893
568596,26314
570596,26582
572599,25962
574601,26211
576604,25468
578606,25208
580607,24740
582609,24431
584612,25152
586615,24893
588618,24797
590620,25108
592621,24571
594621,25168
596649,24677
598649,22892
600650,22889
602650,22370
604650,23320
606654,22524
608657,22429
610657,22858
612660,23110
614662,24036
616662,25864
618664,9980
620664,3583
622665,26055
624669,26065
626671,25293
628671,25027
630674,23652
632676,22460
634677,21863
636677,21160
638677,20716
640679,20486
642681,20273
644683,20649
646686,20681
648689,20287
650690,20801
652691,20779
654692,20926
656695,20928
658696,20273
660696,20751
662699,20542
664702,20541
666704,20743
668704,20270
670704,21832
672707,22239
674711,22152
676712,18720
678713,13319
680716,11290
682717,19476
684718,38196
686720,46944
688720,63075
690723,63188
692725,63049
694729,46952
696730,17300
698731,7518
700734,5001
702737,11904
704739,14237
706742,20193
708742,20423
710745,21105
712746,20604
714750,20044
716752,20088
718753,19912
720755,20358
722758,20301
724761,20365
726761,21594
728763,21362
730763,21806
732765,21177
734766,20676
736767,22561
738767,22029
740769,22084
742772,22556
744774,22329
746775,23060
748778,23726
750778,24423
752780,24759
754780,24484
756782,25380
758785,25295
760787,26178
762788,26587
764788,25957
766789,27624
768790,28102
770793,27895
772795,29531
774795,30044
776795,30907
778797,31528
780799,31376
782799,32233
784802,33175
786803,34660
788806,34985
790806,35313
792807,36392
794809,35872
796810,36893
798811,37470
800813,36758
802814,36537
804814,34796
806814,34711
808818,33857
810818,31521
812819,31684
814819,30194
816819,29004
818821,28565
820824,26784
822827,27408
824828,26898
826835,26518
828837,26229
830841,25671
832843,26270
834844,25808
836846,26045
838848,25474
840849,24941
842851,25605
844852,26271
846853,26298
848855,26720
850858,25632
852860,26240
854861,26056
856862,26175
858865,26560
860868,26016
862870,26582
864871,26130
866874,25781
868875,26623
870876,26043
872876,26519
874879,26190
876879,25139
878882,25478
880883,24333
882886,24983
884888,25048
886888,24590
888890,25154
890890,24817
892894,24981
894897,25083
896899,24552
898902,23031
900906,22674
902906,22774
904906,23245
906907,22192
908907,22595
910907,22735
912909,23480
914911,24260
916912,25607
918915,27860
920918,28186
922920,27194
924920,25955
926921,25043
928921,25393
930922,23568
932925,22430
934927,22014
936927,20988
938928,20957
940930,20347
942932,20198
944933,20743
946934,20447
948934,20567
950935,20707
952938,20613
954939,21116
956939,20883
958942,20465
960945,20791
962947,20325
964948,20624
966951,20615
968954,20371
970957,21862
972958,22008
974962,22336
976964,18588
978964,12561
980965,12140
982965,19442
984965,40691
986965,48279
988966,63091
990967,63236
992969,62892
994970,46941
996972,15283
998973,7431
1000975,5014
1002977,11852
1004977,14488
1006979,20285
1008981,20526
1010982,21092
1012983,20393
1014987,20129
1016989,19981
1018990,19916
1020990,20457
1022990,20192
1024993,20561
1026996,21678
1029000,21338
1031003,21864
1033003,21038
1035004,21098
1037008,22528
1039010,21768
1041013,22278
1043016,22316
1045019,22606
1047021,23043
1049022,23430
1051025,24608
1053026,24594
1055027,24779
1057027,25471
1059027,25126
1061029,26512
1063033,26504
1065037,26342
1067037,27712
1069038,27845
1071040,28582
1073040,29393
1075041,30180
1077042,31144
1079042,31190
1081042,31784
1083045,32151
1085046,33140
1087048,34812
1089049,34641
1091053,35794
1093055,36345
1095056,35796
1097057,37195
1099057,36817
1101058,37092
1103062,36374
1105065,34549
1107069,34764
1109072,33328
1111075,32002
1113077,43631
1115078,63167
1117078,38376
1119081,40405
1121083,63171
1123086,36909
1125088,27269
1127091,26607
1129093,25719
1131094,26274
1133096,25962
1135097,25901
1137099,26047
1139100,24943
1141101,25495
1143102,25471
1145105,26067
1147109,26626
1149112,25969
1151113,26169
1153114,26074
1155114,25755
1157114,26607
1159115,26173
1161119,26478
1163120,26497
1165123,25679
1167126,26385
1169126,26214
1171128,26610
1173130,26484
1175130,25575
1177130,25643
1179131,25134
1181132,24781
1183133,25093
1185136,24523
1187136,25063
1189139,24902
1191141,24798
1193142,25158
1195143,24657
1197145,24567
1199146,22899
1201147,22424
1203147,23027
1205147,22909
1207148,22583
1209151,22594
1211152,22388
1213156,23889
1215160,24030
1217164,25992
1219167,28088
1221171,27630
1223172,27753
1225173,25615
1227177,25511
1229178,25527
1231182,22766
1233184,22698
1235185,21644
1237185,20958
1239187,20936
1241190,19986
1243191,20706
1245191,20639
1247191,20407
1249192,20791
1251192,20489
1253195,20977
1255197,21028
1257199,20511
1259201,20803
1261205,20429
1263206,20700
1265208,20716
1267209,20241
1269210,21045
1271212,21672
1273213,22165
1275214,21403
1277214,18224
1279214,12173
1281218,13883
1283221,19543
1285221,43536
1287223,56761
1289226,63296
1291229,63179
1293231,63149
1295232,46866
1297233,13175
1299235,6826
1301237,4920
1303237,12832
1305237,16054
1307238,19782
1309239,21000
1311241,20876
1313242,20444
1315242,20152
1317246,19700
1319246,20321
1321246,20346
1323248,20000
1325251,20791
1327252,21357
1329253,21672
1331256,21828
1333258,20664
1335260,21498
1337264,22290
1339266,22055
1341266,22318
1343268,21918
1345268,22847
1347268,23063
1349271,23745
1351272,24661
1353273,24346
1355276,25071
1357276,25467
1359278,25453
1361280,26615
1363281,26098
1365282,26733
1367283,27589
1369286,27688
1371289,28725
1373290,29006
1375290,30632
1377292,31096
1379295,30966
1381298,32088
1383300,32157
1385303,33598
1387305,34798
1389307,34611
1391310,36132
1393312,35874
1395314,26864
1397317,4107
1399318,31935
1401319,37177
1403320,35981
1405320,34942
1407321,34554
1409323,33185
1411326,32064
1413327,30855
1415327,30403
1417331,28895
1419335,27655
1421335,27410
1423338,26928
1425341,26915
1427342,26538
1429345,25650
1431348,26317
1433349,25836
1435351,26080
1437352,25946
1439354,24899
1441358,63063
1443360,61174
1445361,27538
1447364,26562
1449365,25872
1451367,26411
1453367,25858
1455367,48655
1457370,63133
1459371,32919
1461373,26820
1463375,26209
1465376,26082
1467377,26313
1469377,25980
1471380,26652
1473381,26134
1475382,26026
1477384,25572
1479384,24647
1481387,24794
1483387,24858
1485387,24759
1487390,25146
1489391,24588
1491392,25098
1493395,24987
1495397,24731
1497398,24571
1499400,22498
1501404,22892
1503404,22911
1505404,22810
1507408,22715
1509409,22259
1511411,22890
1513415,23835
1515415,24317
1517415,26209
1519415,27855
1521416,27888
1523417,27676
1525418,25134
1527420,25581
1529422,25205
1531424,23092
1533426,22584
1535427,21348
1537428,21241
1539431,20585
1541434,20231
1543437,20787
1545440,20237
1547442,20751
1549444,20581
1551447,20597
1553448,21033
1555449,20629
1557450,20926
1559451,20607
1561454,20433
1563456,20775
1565458,20309
1567459,20696
1569462,21032
1571464,21390
1573465,22524
1575469,20839
1577469,18611
1579469,12037
1581470,14175
1583473,19919
1585474,43823
1587476,60203
1589477,63103
1591477,63133
1593478,63115
1595479,46185
1597482,11388
1599483,6648
1601484,4927
1603486,13073
1605487,16071
1607487,20165
1609489,20954
1611490,20443
1613491,20771
1615494,19869
1617494,19980
1619496,20382
1621498,19885
1623501,20563
1625502,20529
1627504,21513
1629507,21792
1631509,21346
1633511,63203
1635512,55563
1637513,23342
1639514,22370
1641515,14911
1643516,3823
1645517,20707
1647519,22971
1649521,24054
1651523,24180
1653525,24830
1655529,24961
1657531,25004
1659532,26037
1661532,26073
1663533,26454
1665533,27056
1667534,27078
1669536,28392
1671538,28628
1673538,29296
1675541,30805
1677541,30554
1679545,31722
1681546,31649
1683546,32482
1685550,33811
1687552,34123
1689553,35447
1691554,35658
1693555,36135
1695558,36726
1697558,36464
1699560,37476
1701560,36650
1703562,35964
1705564,35160
1707566,20161
1709567,3885
1711567,28669
1713567,30732
1715567,30656
1717567,28308
1719571,28136
1721571,27206
1723572,26888
1725574,26992
1727577,26037
1729579,26239
1731582,26038
1733585,25772
1735587,26271
1737589,25302
1739591,25531
1741594,25363
1743595,25594
1745596,26626
1747599,26062
1749601,26372
1751603,26122
1753604,25725
1755605,26411
1757605,26121
1759605,26468
1761605,26511
1763606,26004
1765608,26289
1767609,25972
1769610,26440
1771613,26526
1773614,25781
1775615,26245
1777615,25224
1779616,24911
1781619,24719
1783620,24493
1785620,25147
1787624,24838
1789624,24966
1791625,25083
1793626,24426
1795629,25144
1797632,23747
1799633,22746
1801636,22902
1803637,22582
1805637,23269
1807638,22518
1809641,22396
1811644,22922
1813646,23392
1815647,24897
1817649,26069
1819651,27641
1821653,28124
1823653,27193
1825653,25659
1827653,25417
1829655,25033
1831656,23200
1833659,21947
1835662,21826
1837666,21062
1839669,20185
1841672,20442
1843674,20409
1845675,20672
1847678,20691
1849678,20267
1851681,20961
1853683,20829
1855684,20985
1857686,20904
1859688,20282
1861688,20746
1863688,20653
1865688,20493
1867692,20739
1869694,20836
1871695,21846
1873696,22337
1875698,20044
1877699,18625
1879701,11504
1881705,15076
1883708,19795
1885710,44122
1887713,63103
1889714,63123
1891716,63145
1893717,62525
1895719,45828
1897721,10549
1899724,6022
1901726,4963
1903728,13371
1905731,17500
1907733,20351
1909735,20559
1911738,20931
1913740,20595
1915742,19851
1917744,20259
1919747,19936
1921750,20386
1923752,20441
1925755,20371
1927756,21791
1929760,21491
1931762,21772
1933766,21083
1935769,21419
1937772,22586
1939775,21886
1941776,22269
1943776,22396
1945777,22374
1947778,23646
1949778,23777
1951778,24431
1953779,24997
1955779,24601
1957781,25457
1959782,26066
1961785,26010
1963788,26675
1965789,26666
1967792,27640
1969792,28272
1971795,28430
1973797,29559
1975797,30371
1977801,31239
1979801,31614
1981801,31377
1983804,33219
1985806,33260
1987807,34699
1989808,35614
1991810,35347
1993810,36464
1995812,36440
1997812,36866
1999815,37436
2001818,36195
2003818,36548
2005819,34577
2007819,34178
2009822,33809
2011822,31188
2013825,31085
2015829,30120
2017829,28780
2019832,27772
2021833,26800
2023835,27415
2025839,26436
2027840,26472
2029840,26191
2031844,25663
2033845,26249
2035847,25818
2037847,25620
2039849,25508
2041851,24862
2043855,26191
2045858,26221
2047858,26335
2049859,26367
2051860,25608
2053862,26198
2055865,26215
2057866,26275
2059868,26598
2061870,25978
2063871,26610
2065874,26062
2067877,26072
2069878,26596
2071880,25982
2073880,26341
2075881,26020
2077882,25166
2079883,25059
2081886,24223
2083888,25164
2085888,25028
2087890,24623
2089891,25218
2091894,24692
2093895,25092
2095897,25038
2097899,23472
2099901,22999
2101904,22588
2103907,23049
2105908,23210
2107910,22098
2109912,22816
2111913,22572
2113915,23778
2115915,25375
2117915,25579
2119919,28298
2121921,27553
2123922,27494
2125924,25605
2127925,24913
2129926,25515
2131928,22918
2133929,22117
2135930,21872
2137932,20635
2139935,20689
2141935,20207
2143935,20484
2145935,20761
2147936,20315
2149938,20736
2151940,20866
2153941,20735
2155942,20980
2157942,20489
2159942,20704
2161944,20650
2163945,20269
2165946,20766
2167947,20467
2169948,21258
2171951,21806
2173951,21965
2175951,10667
2177955,3597
2179957,10713
2181960,16840
2183963,19470
2185966,44942
2187968,63081
2189968,63117
2191972,63107
2193974,58937
2195976,46343
2197977,9507
2199979,5914
2201981,4911
2203982,13345
2205983,18045
2207983,20048
2209986,20798
2211989,20852
2213992,20231
2215992,63116
2217993,42193
2219994,20897
2221995,20421
2223998,20072
2225998,20770
2227998,21559
2229998,21768
2231999,21838
2234000,20659
2236002,22175
2238002,22430
2240002,21874
2242002,22460
2244005,22075
2246006,22850
2248007,23584
2250008,23486
2252010,24706
2254010,24684
2256010,25003
2258011,25411
2260012,25591
2262013,26595
2264015,26353
2266016,27006
2268018,27732
2270020,27776
2272022,29144
2274023,29335
2276024,30384
2278027,31536
2280028,31120
2282030,31941
2284030,33024
2286031,33215
2288034,34986
2290036,35045
2292038,35933
2294038,36427
2296039,36203
2298040,37203
2300041,36895
2302043,36564
2304045,36374
2306045,34358
2308046,34278
2310046,33380
2312046,31636
2314046,30951
2316050,29974
2318054,28987
2320056,27498
2322058,27214
2324059,27293
2326060,26198
2328063,26620
2330066,25846
2332068,26045
2334071,26186
2336073,25625
2338076,25717
2340077,25206
2342080,25355
2344082,26324
2346082,25958
2348085,26626
2350086,26102
2352088,25917
2354089,26285
2356091,25844
2358093,26619
2360095,26351
2362099,26233
2364099,26624
2366102,25623
2368102,26522
2370103,26363
2372105,26237
2374107,26319
2376108,25628
2378109,25549
2380111,24720
2382113,24451
2384115,25150
2386117,24561
2388118,25144
2390122,24951
2392125,24753
2394127,25175
2396130,24559
2398132,23540
2400135,22810
2402139,22541
2404140,23235
2406141,22842
2408141,22550
2410145,22695
2412145,22463
2414145,23993
2416145,25144
2418148,26058
2420150,28313
2422151,27281
2424152,27738
2426153,25308
2428155,25319
2430158,25566
2432160,22515
2434164,22175
2436164,21644
2438165,20936
2440165,20589
2442166,19921
2444170,20755
2446170,20632
2448170,20439
2450172,20715
2452175,20601
2454176,21063
2456176,21013
2458178,20443
2460180,20793
2462184,20434
2464185,8269
2466185,3551
2468186,19506
2470187,21543
2472189,21628
2474191,22352
2476193,19533
2478196,18219
2480197,63191
2482197,37757
2484197,20425
2486197,46027
2488197,63161
2490198,63035
2492198,63115
2494198,55351
2496198,46190
2498198,9118
2500202,5595
2502203,4853
2504204,13661
2506207,18806
2508207,19873
2510208,21000
2512210,20703
2514213,20429
2516213,20087
2518213,19930
2520214,20372
2522216,20298
2524216,20149
2526216,20800
2528218,21544
2530219,21737
2532222,21858
2534223,20616
2536225,22183
2538227,22365
2540228,21993
2542231,22490
2544233,22047
2546235,22608
2548238,22743
2550239,22992
2552241,24092
2554242,24163
2556244,24873
2558244,25044
2560248,24989
2562251,26024
2564252,26126
2566253,26475
2568254,27072
2570257,27022
2572257,28350
2574257,28684
2576260,29177
2578262,30830
2580264,30688
2582267,31728
2584268,31740
2586269,32298
2588269,33893
2590272,34147
2592275,35395
2594277,35826
2596277,35816
2598279,36789
2600283,36404
2602287,37542
2604291,36615
2606291,35912
2608295,35090
2610297,33653
2612298,33601
2614302,31497
2616305,30984
2618308,30598
2620310,28349
2622311,28171
2624313,27022
2626315,27093
2628317,26949
2630317,25963
2632321,26240
2634322,25948
2636322,25807
2638324,26250
2640325,25252
2642328,25492
2644329,25368
2646329,25667
2648330,26632
2650333,26069
2652336,26426
2654338,26101
2656340,25704
2658340,26438
2660340,26110
2662340,26427
2664341,26522
2666341,25976
2668341,26296
2670341,26060
2672345,26415
2674345,26706
2676347,25782
2678350,26237
2680354,25355
2682354,24789
2684354,24717
2686357,24584
2688361,25172
2690361,24893
2692361,24810
2694363,25144
2696365,24537
2698368,25120
2700368,23814
2702371,22672
2704372,22968
2706374,22650
2708375,23255
2710375,22494
2712376,22300
2714376,22942
2716379,23547
2718381,24823
2720381,26102
2722383,27574
2724383,28073
2726387,27305
2728390,25569
2730390,25485
2732392,24919
2734392,23101
2736392,22135
2738392,21698
2740395,21137
2742398,20245
2744400,20409
2746403,20501
2748406,20559
2750408,20743
2753434,20411
2755437,20754
2757437,21074
2759441,20605
2761442,20765
2763443,20655
2765446,20414
2767448,20651
2769448,20329
2771451,20732
2773453,21695
2775456,21754
2777458,22607
2779460,18518
2781463,14110
2783465,11222
2785465,18991
2787466,35850
2789467,46406
2791469,63062
2793473,63007
2795476,63093
2797479,48794
2799479,25251
2801481,7881
2803483,5065
2805484,10200
2807487,14069
2809490,19518
2811493,20771
2813496,20962
2815499,20497
2817501,20319
2819502,19633
2821505,20349
2823506,20337
2825507,19937
2827510,20771
2829512,20920
2831516,21759
2833519,21815
2835521,20977
2837521,21149
2839524,22124
2841526,22199
2843527,22220
2845528,21985
2847528,22840
2849532,22660
2851533,23733
2853533,24473
2855535,24161
2857538,25120
2859541,25147
2861541,25196
2863542,26584
2865544,26067
2867546,26595
2869548,27436
2871548,27633
2873549,28461
2875551,28828
2877555,30330
2879557,30792
2881559,31127
2883560,31976
2885562,31443
2887566,33693
2889567,34124
2891569,34379
2893569,36021
2895571,35696
2897572,36241
2899575,36897
2901578,36737
2903580,37568
2905582,35818
2907583,35577
2909585,34702
2911588,33482
2913590,32509
2915591,31018
2917593,30705
2919595,29067
2921597,28531
2923598,27410
2925600,26706
2927602,27346
2929603,26362
2931606,26038
2933607,26255
2935608,25596
2937611,26229
2939612,26006
2941614,25230
2943614,25503
2945618,24953
2947618,26460
2949622,26406
2951626,26115
2953628,26266
2955629,25753
2957630,26191
2959633,26418
2961636,26169
2963639,26620
2965643,25998
2967644,26341
2969646,26045
2971649,26089
2973649,26648
2975650,26121
2977651,26126
2979651,25611
2981653,24974
2983653,24884
2985653,24663
2987656,25017
2989657,25088
2991659,24555
2993659,25165
2995661,24826
2997661,24907
2999662,25119
3001663,22502
3003663,22971
3005665,22744
3007666,22999
3009668,22854
3011669,22076
3013670,22890
3015670,23464
3017672,23683
3019674,26118
3021677,27133
3023681,28322
3025682,27642
3027686,25728
3029689,25573
3031693,24943
3033695,23970
3035697,22822
3037698,21582
3039699,21435
3041701,20778
3043703,20357
3045704,20541
3047705,20301
3049707,20789
3051710,20473
3053711,20640
3055712,21181
3057713,20583
3059716,21131
3061719,20541
3063721,20557
3065722,20748
3067726,20307
3069726,20777
3071727,20624
3073727,21449
3075729,22324
3077732,22063
3079733,18788
3081735,60671
3083737,63037
3085738,23680
3087741,37292
3089744,46591
3091746,63143
3093748,63157
3095750,63145
3097751,47298
3099754,19555
3101756,7606
3103756,5056
3105757,10960
3107757,13759
3109758,20087
3111761,20636
3113763,20958
3115765,20759
3117765,19775
3119766,20071
3121767,20246
3123768,20068
3125769,20409
3127770,20357
3129773,21511
3131775,21722
3133776,21416
3135778,21327
3137781,20767
3139783,22434
3141786,22316
3143788,21726
3145789,22585
3147792,22539
3149794,22812
3151795,23955
3153798,23907
3155801,24756
3157801,24887
3159804,25118
3161805,25492
3163808,25927
3165808,26631
3167809,26380
3169811,27306
3171815,28257
3173816,27767
3175817,29498
3177819,30468
3179822,30457
3181824,32080
3183825,31273
3185825,31983
3187826,33647
3189826,33939
3191829,35025
3193832,35433
3195832,36020
3197832,36341
3199833,36448
3201836,37488
3203836,36885
3205838,36376
3207838,35266
3209839,34300
3211843,33978
3213844,31668
3215845,31532
3217845,30562
3219847,28805
3221849,28844
3223849,26897
3225850,27271
3227852,27222
3229854,4469
3231856,20420
3233857,25768
3235858,25965
3237858,26307
3239860,25326
3241862,25575
3243864,25294
3245867,25307
3247867,26554
3249868,25950
3251869,26625
3253870,26018
3255872,25855
3257875,26249
3259876,25988
3261880,26611
3263880,26423
3265882,26166
3267882,26345
3269884,25653
3271886,26524
3273888,26442
3275888,26054
3277889,26243
3279893,25183
3281893,25416
3283895,24679
3285895,24505
3287896,25156
3289898,24799
3291901,24928
3293901,25138
3295902,24545
3297904,25162
3299905,24855
3301908,22842
3303909,22943
3305910,22360
3307910,23256
3309913,22560
3311913,22272
3313915,22960
3315918,23165
3317922,24023
3319922,25967
3321924,27132
3323924,28449
3325925,27245
3327929,26111
3329931,25430
3331934,25090
3333935,23715
3335935,22533
3337935,21823
3339938,21192
3341940,20609
3343943,20466
3345945,20379
3347946,20611
3349948,20709
3351952,20277
3353954,20807
3355958,20859
3357962,20960
3359963,21098
3361964,20259
3363968,20775
3365971,20555
3367972,20545
3369974,20758
3371975,20211
3373978,21840
3375979,22215
3377982,22168
3379982,18712
3381983,12601
3383986,11898
3385987,19667
3387991,40221
3389992,46917
3391993,63065
3393994,63193
3395995,63148
3397997,46631
3399998,17373
3402000,7566
3404001,5034
3406001,11944
3408001,14000
3410002,20193
3412004,20525
3414008,20976
3416011,20655
3418011,19729
3420013,20092
3422015,20040
3424019,20322
3426021,20430
3428024,20281
3430028,21614
3432028,21569
3434032,21690
3436035,21220
3438035,20576
3440035,22522
3442037,22121
3444039,22000
3446041,22560
3448042,22366
3450042,22932
3452042,23901
3454042,24112
3456045,24795
3458047,24679
3460049,25329
3462052,25513
3464054,25988
3466058,26641
3468061,26384
3470063,27482
3472064,28209
3474067,27801
3476070,29529
3478070,30275
3480070,30740
3482074,31667
3484076,31280
3486077,32199
3488078,33457
3490078,34419
3492080,35071
3494083,35403
3496085,36369
3498086,36158
3500087,36701
3502090,37440
3504090,36640
3506090,36504
3508090,34884
3510093,34598
3512094,33883
3514097,31471
3516098,31684
3518102,30296
3520106,28895
3522107,28809
3524109,26766
3526111,27406
3528111,26922
3530111,26395
3532113,26286
3534116,25601
3536117,26241
3538118,25988
3540119,25663
3542119,25575
3544122,24986
3546124,25504
3548125,26468
3550126,26028
3552127,26595
3554128,25754
3556128,26058
3558129,26179
3560132,26059
3562133,26584
3564136,26202
3566138,26384
3568140,26298
3570140,25637
3572142,26630
3574142,26347
3576143,26247
3578146,26242
3580147,25010
3582149,25471
3584151,24587
3586151,24608
3588152,25156
3590154,24690
3592154,25070
3594154,24978
3596157,24593
3598160,25178
3600163,24401
3602165,23067
3604165,22826
3606165,22455
3608165,23320
3610166,22490
3612169,22397
3614170,22887
3616171,23199
3618171,24296
3620171,25936
3622173,27445
3624174,28388
3626174,27197
3628174,25862
3630174,25393
3632174,24931
3634177,23409
3636177,22408
3638180,21794
3640181,21186
3642181,20493
3644183,20433
3646183,20391
3648184,20521
3650188,20721
3652189,20229
3654191,20806
3656193,20899
3658193,20835
3660194,21084
3662196,20314
3664198,20739
3666200,20628
3668202,20414
3670203,20777
3672205,20555
3674208,21728
3676211,22372
3678215,21406
3680218,18681
3682218,12425
3684218,11624
3686220,19721
3688221,41450
3690221,53080
3692224,63248
3694224,62846
3696224,63216
3698224,46288
3700225,14578
3702225,7038
3704225,5009
3706229,12676
3708229,14831
3710232,20306
3712234,20718
3714236,20867
3716236,20761
3718239,19635
3720239,20079
3722243,20225
3724244,20116
3726246,20449
3728249,20315
3730250,21569
3732250,21724
3734253,21413
3736253,21270
3738254,21006
3740254,22333
3742257,22270
3744258,21747
3746260,22552
3748261,22631
3750265,23032
3752266,24042
3754266,24100
3756270,24826
3758273,24801
3760274,25086
3762275,25629
3764276,25974
3766280,26609
3768281,26574
3770282,27149
3772285,28272
3774287,28209
3776287,29384
3778290,30644
3780290,30452
3782291,31733
3784294,31480
3786297,32236
3788301,33791
3790301,34122
3792303,35337
3794307,35479
3796309,35931
3798312,36544
3800315,36504
3802318,37541
3804318,36799
3806318,36308
3808321,35138
3810321,34164
3812325,33958
3814327,31481
3816329,31315
3818331,30568
3820333,28569
3822335,28412
3824337,26984
3826339,63185
3828342,63110
3830345,27637
3832347,63156
3834349,63081
3836350,27646
3838352,26013
3840352,25795
3842353,25555
3844356,24967
3846356,25760
3848356,26378
3850357,26074
3852359,26500
3854362,25633
3856363,26145
3858365,26238
3860366,26025
3862369,26630
3864371,26060
3866373,26490
3868374,26406
3870375,25712
3872378,26624
3874379,26205
3876380,26319
3878382,26186
3880383,25014
3882384,25592
3884385,24459
3886389,24868
3888392,25096
3890395,24561
3892395,25170
3894398,24821
3896400,24888
3898404,25120
3900407,24178
3902410,23027
3904412,22639
3906412,18346
3908413,3901
3910415,19266
3912418,22574
3914419,22738
3916421,23541
3918421,24665
3920423,25653
3922423,28092
3924426,28077
3926429,27140
3928430,25833
3930431,25071
3932432,25433
3934433,23302
3936433,22229
3938435,21902
3940436,20865
3942438,21034
3944439,20383
3946440,20167
3948442,20779
3950442,20593
3952442,20473
3954444,20822
3956444,20625
3958447,21039
3960448,20911
3962451,20347
3964452,20765
3966453,20375
3968453,20634
3970455,20735
3972457,20437
3974458,21836
3976459,22232
3978459,21561
3980462,18652
3982464,12008
3984465,13566
3986466,19710
3988468,42164
3990469,57162
3992470,63138
3994470,63184
3996471,63059
3998471,46231
4000471,12332
4002472,6993
4004474,4981
4006474,12585
4008474,15222
4010476,20243
4012478,20509
4014478,21013
4016478,20827
4018478,19709
4020480,20160
4022481,20083
4024482,20326
4026483,20453
4028485,20259
4030486,21731
4032489,21600
4034492,21693
4036492,21184
4038496,21092
4040497,22571
4042499,22043
4044499,22024
4046500,22634
4048500,22408
4050503,23159
4052504,23889
4054504,24134
4056507,24699
4058511,24704
4060512,25365
4062513,25732
4064515,25992
4066517,26604
4068518,26566
4070522,27553
4072525,28290
4074525,28158
4076526,29538
4078529,30417
4080530,31011
4082531,31673
4084531,31301
4086535,32963
4088538,33447
4090540,34510
4092543,35296
4094544,35315
4096545,36444
4098546,36368
4100548,36683
4102550,37438
4104550,36385
4106550,36482
4108553,34766
4110553,34221
4112553,33859
4114556,31249
4116559,31263
4118559,30357
4120559,28751
4122561,28329
4124565,26746
4126569,27389
4128571,26732
4130572,26408
4132572,6088
4134572,3516
4136573,3428
4138577,23532
4140577,25342
4142577,25564
4144577,25068
4146577,25843
4148578,26492
4150581,26033
4152584,26487
4154586,25840
4156587,26028
4158588,26443
4160591,25978
4162591,26624
4164592,26265
4166594,26382
4168595,26243
4170597,25751
4172600,26614
4174601,26398
4176602,26047
4178602,26241
4180606,25050
4182608,25150
4184608,24596
4186609,24662
4188610,25178
4190612,24661
4192613,25078
4194614,52156
4196614,63197
4198617,31476
4200619,24050
4202619,22948
4204623,22808
4206643,22862
4208646,23309
4210647,22132
4212647,22760
4214647,22750
4216650,23654
4218653,25018
4220655,25561
4222657,28096
4224657,28068
4226659,27165
4228660,25842
4230663,25030
4232665,25439
4234668,23110
4236670,22075
4238670,21924
4240674,20844
4242677,20763
4244680,20294
4246683,20209
4248686,20795
4250686,20402
4252688,20666
4254690,20869
4256692,20556
4258696,21139
4260698,20691
4262699,20647
4264699,63351
4266702,55910
4268706,21843
4270709,20502
4272712,21123
4274713,21832
4276716,21943
4278719,13624
4280722,3726
4282723,10465
4284724,15504
4286724,19454
4288724,44126
4290727,61562
4292731,63192
4294732,63059
4296735,63145
4298735,46530
4300737,11452
4302738,6392
4304741,4957
4306741,13002
4308742,16978
4310743,20112
4312744,20825
4314745,20932
4316745,20299
4318747,20076
4320749,20080
4322751,20040
4324752,20421
4326753,20275
4328757,20705
4330758,21743
4332758,21341
4334762,21886
4336765,20931
4338768,21541
4340771,22552
4342771,21708
4344773,22374
4346773,22309
4348775,22574
4350776,23485
4352776,23497
4354777,24729
4356780,24840
4358783,24628
4360787,25551
4362790,25519
4364791,26499
4366792,26552
4368792,26560
4370793,27743
4372794,27994
4374794,28697
4376794,29574
4378796,30153
4380798,31302
4382798,31399
4384801,31660
4386801,32933
4388802,33228
4390804,35122
4392804,35279
4394804,35473
4396804,36468
4398805,36059
4400805,37023
4402809,37294
4404810,36346
4406812,36554
4408814,34393
4410817,34335
4412817,33743
4414817,31398
4416817,31257
4418820,30008
4420821,28911
4422821,15652
4424825,3776
4426828,25493
4428830,26422
4430832,26489
4432836,26149
4434836,25690
4436836,26257
4438837,25817
4440840,25718
4442842,25459
4444842,24937
4446844,26213
4448845,26337
4450845,26269
4452847,26404
4454850,25680
4456852,26239
4458853,26200
4460854,26169
4462857,26606
4464857,25972
4466860,26577
4468860,26101
4470861,25864
4472865,26630
4474868,26016
4476868,26285
4478870,26120
4480871,25046
4482871,25050
4484871,24420
4486872,24946
4488873,25097
4490876,24559
4492876,25178
4494877,24916
4496877,24861
4498879,25116
4500880,23392
4502880,22969
4504882,22734
4506882,22836
4508883,23336
4510883,22157
4512885,22646
4514887,22839
4516890,23422
4518891,25086
4520891,25785
4522893,28061
4524897,27987
4526899,27153
4528901,25661
4530903,25097
4532905,25433
4534906,23049
4536910,21876
4538912,21888
4540914,20845
4542918,20643
4544920,20273
4546921,20161
4548924,20771
4550926,20509
4552926,20591
4554927,20907
4556927,20581
4558931,21137
4560933,20707
4562934,20546
4564936,20727
4566937,20222
4568938,20675
4570938,20644
4572938,21012
4574941,21880
4576945,22189
4578948,20164
4580948,18550
4582951,11556
4584951,16207
4586953,19741
4588957,44606
4590957,63101
4592959,63135
4594959,63142
4596959,60920
4598959,46109
4600959,10316
4602961,6010
4604964,4921
4606967,13254
4608968,17825
4610970,20245
4612970,20641
4614970,20960
4616972,20423
4618973,20016
4620974,20204
4622977,19935
4624978,20456
4626978,20326
4628980,20531
4630982,21821
4632983,11560
4634983,3669
4636985,19683
4638986,21549
4640987,22602
4642987,21821
4644988,22337
4646990,22504
4648990,22061
4650992,22920
4652996,23015
4654996,23853
4656996,24681
4658996,24300
4660998,25142
4662999,25250
4665000,25453
4667002,26583
4669003,25989
4671005,46300
4673005,63207
4675005,35923
4677005,28965
4679005,28943
4681005,30702
4683008,30996
4685011,31198
4687015,32106
4689017,32047
4691020,33766
4693022,34694
4695026,34762
4697026,36116
4699026,35756
4701026,36515
4703030,36998
4705032,36829
4707035,37315
4709037,35754
4711040,35102
4713040,34449
4715040,33354
4717041,32005
4719041,30726
4721041,30522
4723044,28849
4725047,27714
4727050,27406
4729052,26945
4731053,26928
4733055,26530
4735055,25629
4737055,26303
4739056,25900
4741058,25977
4743059,25951
4745061,24894
4747061,25520
4749063,25585
4751063,26226
4753065,26612
4755068,25881
4757069,26233
4759071,26087
4761073,25866
4763075,26636
4765077,26051
4767079,26537
4769081,26534
4771084,25713
4773086,26487
4775088,26154
4777091,26462
4779091,26438
4781093,25623
4783094,25621
4785095,24900
4787097,24859
4789098,25072
4791099,24532
4793099,25127
4795100,24911
4797101,24749
4799104,25156
4801107,24593
4803108,24582
4805109,22861
4807110,22573
4809110,22924
4811112,22930
4813112,22605
4815113,22608
4817113,22446
4819114,23960
4821116,24499
4823118,26025
4825119,28164
4827121,27490
4829123,27711
4831125,25493
4833125,25254
4835127,25483
4837130,22624
4839133,22690
4841136,21675
4843137,20934
4845139,20898
4847139,19944
4849142,20735
4851144,20601
4853145,20390
4855147,20775
4857148,20390
4859150,21061
4861153,21037
4863154,20487
4865155,20792
4867156,20440
4869157,20683
4871157,20747
4873158,20263
4875158,21270
4877159,21630
4879161,22212
4881163,21433
4883163,18174
4885165,12151
4887168,14077
4889170,19596
4891173,43631
4893177,60538
4895179,63168
4897180,63175
4899183,63105
4901185,46703
4903186,11238
4905190,6731
4907193,4932
4909196,12940
4911199,16089
4913201,19809
4915202,21013
4917206,20679
4919207,20599
4921209,20090
4923211,19672
4925211,20430
4927212,20265
4929213,20241
4931214,20796
4933215,21307
4935216,21748
4937219,21798
4939219,20703
4941221,21774
4943221,22285
4945223,22087
4947223,22408
4949224,22040
4951226,22953
4953226,23278
4955230,23749
4957234,24713
4959237,24352
4961241,25113
4963243,25272
4965246,25668
4967246,26668
4969247,26013
4971249,27041
4973249,27546
4975250,27872
4977253,28943
4979254,28859
4981257,30721
4983257,31216
4985259,31097
4987260,32082
4989261,32502
4991261,33673
4993262,34798
4995262,34620
4997265,36099
4999267,35915
5001269,36443
5003270,37079
5005270,36705
5007272,37089
5009273,36088
5011274,34814
5013275,34444
5015275,33119
5017277,31923
5019280,30727
5021283,30428
5023285,28891
5025285,27370
5027286,27404
5029288,27073
5031289,26785
5033289,26542
5035289,25646
5037289,26219
5039289,26042
5041291,25760
5043293,25920
5045293,25028
5047294,25453
5049295,25978
5051295,25847
5053297,26651
5055297,26001
5057297,26105
5059300,26149
5061301,25784
5063305,26578
5065308,26305
5067311,26378
5069315,26534
5071319,25585
5073322,26382
5075325,26218
5077327,26296
5079329,26362
5081330,25647
5083330,25612
5085332,24861
5087335,24524
5089336,25103
5091339,24543
5093342,25148
5095343,24933
5097343,24733
5099343,25126
5101345,24625
5103345,24147
5105348,22839
5107348,22482
5109348,23146
5111349,22916
5113353,22564
5115353,22686
5117353,22357
5119354,23964
5121354,24929
5123356,25922
5125358,28264
5127361,27346
5129361,27737
5131362,25523
5133365,25203
5135368,25511
5137370,22666
5139374,22458
5141378,21712
5143378,20888
5145378,20783
5147381,19984
5149384,20704
5151387,20652
5153387,20414
5155390,20771
5157390,20620
5159392,21032
5161393,21147
5163396,20469
5165397,20800
5167398,20479
5169400,20644
5171400,20729
5173402,20241
5175404,21290
5177405,21674
5179408,22221
5181412,20633
5183414,18180
5185414,11860
5187415,15668
5189417,19616
5191419,44648
5193419,62742
5195420,63188
5197420,63172
5199423,63155
5201425,46531
5203427,10584
5205427,6283
5207430,4916
5209433,13267
5211436,17238
5213436,19827
5215438,21054
5217440,20729
5219443,20539
5221446,20093
5223448,19748
5225449,20414
5227452,20243
5229456,20321
5231458,20767
5233459,21289
5235462,21819
5237465,21766
5239468,20819
5241470,22039
5243472,22151
5245474,22189
5247476,22334
5249476,22086
5251477,22944
5253479,23142
5255482,23901
5257483,4988
5259485,15086
5261489,24931
5263490,25109
5265490,25818
5267492,26576
5269492,25966
5271496,27255
5273498,27510
5275500,27997
5277501,29192
5279504,28892
5281506,30868
5283508,31307
5285509,31143
5287509,32155
5289510,32484
5291511,33654
5293512,34828
5295516,34842
5297519,36117
5299519,35856
5301521,36621
5303522,37075
5305524,36803
5307528,62308
5309530,63223
5311533,38533
5313536,34070
5315539,33435
5317539,31861
5319542,30468
5321545,30660
5323547,28637
5325549,27720
5327549,27318
5329551,26723
5331553,26890
5333554,26434
5335557,25839
5337558,26235
5339561,25627
5341563,26216
5343567,25565
5345569,25127
5347570,25545
5349572,25673
5351573,26561
5353575,26516
5355578,25886
5357581,26147
5359585,25652
5361586,26367
5363586,26490
5365587,25988
5367591,26686
5369593,26179
5371594,26131
5373595,26440
5375595,25962
5377597,26562
5379597,26061
5381600,25988
5383601,25541
5385601,24411
5387602,24767
5389604,24874
5391607,24916
5393608,25158
5395609,24598
5397610,25107
5399614,24960
5401615,24651
5403616,23793
5405619,22468
5407620,22920
5409622,23115
5411625,22855
5413626,22638
5415628,22464
5417630,22795
5419632,23929
5421634,24636
5423636,26177
5425636,27947
5427638,27768
5429640,27694
5431643,24973
5433643,25483
5435646,25255
5437650,22847
5439654,22188
5441655,21359
5443658,21220
5445660,20486
5447661,20152
5449665,20770
5451668,20277
5453669,20759
5455671,20607
5457673,20637
5459675,21104
5461678,20720
5463679,20846
5465679,20683
5467682,20318
5469685,20777
5471687,20441
5473688,20614
5475689,21477
5477691,21305
5479692,22524
5481695,19760
5483695,18496
5485696,11571
5487698,16774
5489699,19937
5491703,45536
5493704,63215
5495706,63254
5497709,63236
5499711,58200
5501712,45941
5503712,6146
5505716,4478
5507716,4874
5509718,13686
5511720,18076
5513723,20124
5515726,21082
5517729,20357
5519730,20764
5521732,19892
5523733,20000
5525733,20417
5527734,20067
5529735,20573
5531738,20658
5533740,21401
5535742,21899
5537742,21551
5539743,21042
5541743,21982
5543743,21998
5545746,22278
5547749,22183
5549752,22405
5551756,22902
5553756,23135
5555756,24036
5557758,24489
5559760,24757
5561761,25191
5563762,24982
5565765,26235
5567766,26455
5569766,26069
5571768,27478
5573770,27220
5575771,28279
5577774,29071
5579776,28951
5581778,30942
5583778,30978
5585779,31497
5587779,32045
5589780,32579
5591781,33883
5593782,34590
5595783,35322
5597784,36086
5599786,35642
5601788,36963
5603790,36843
5605790,36869
5607793,36776
5609793,35772
5611793,35028
5613796,34045
5615799,33378
5617802,31918
5619802,30333
5621803,30616
5623803,28663
5625804,27409
5627806,27407
5629808,26721
5631809,26754
5633813,26443
5635816,25758
5637818,26302
5639821,25688
5641823,26148
5643824,25605
5645825,24983
5647829,25531
5649829,25822
5651829,26205
5653829,26574
5655829,25711
5657832,26249
5659832,25893
5661833,26158
5663835,26622
5665835,26016
5667836,26682
5669837,26475
5671840,25768
5673841,26522
5675842,26091
5677843,26549
5679845,26256
5681848,25652
5683849,25564
5685849,24639
5687850,24545
5689851,25145
5691854,24555
5693855,25260
5695855,24909
5697856,24842
5699858,24961
5701860,4400
5703861,17676
5705862,22658
5707865,22568
5709867,23239
5711869,22802
5713871,22570
5715872,22732
5717876,22479
5719880,24040
5721883,25078
5723886,26063
5725886,28256
5727890,27322
5729890,27672
5731890,25249
5733894,25368
5735898,25531
5737900,22541
5739900,22164
5741903,21573
5743906,4177
5745909,16238
5747910,19840
5749912,20768
5751915,20491
5753917,20623
5755919,20753
5757921,20481
5759923,21118
5761927,20926
5763927,20640
5765928,20765
5767928,20314
5769928,20761
5771929,20691
5773933,20373
5775933,21596
5777935,21490
5779937,22458
5781940,19484
5783944,18174
5785946,11441
5787946,17760
5789949,20132
5791952,46066
5793953,63143
5795954,63237
5797955,63228
5799957,55067
5801960,46014
5803961,9069
5805961,5536
5807961,4841
5809962,13796
5811963,18801
5813965,19901
5815966,21100
5817969,20554
5819971,20547
5821971,20009
5823972,19841
5825974,20405
5827975,20184
5829975,20415
5831978,20781
5833978,21302
5835982,21854
5837983,21723
5839983,20905
5841983,22191
5843984,22165
5845984,22197
5847985,22428
5849986,22075
5851988,22931
5853988,23507
5855991,23935
5857995,24651
5859995,24460
5861997,25202
5863999,25187
5866001,26140
5868001,26604
5870004,25983
5872007,27416
5874009,27448
5876010,28094
5878011,29288
5880012,28901
5882014,30898
5884014,31398
5886015,31117
5888016,32081
5890016,32905
5892019,33773
5894022,34820
5896023,9867
5898023,6256
5900024,34970
5902024,63175
5904027,63206
5906028,38555
5908032,36769
5910032,35850
5912035,34956
5914037,34056
5916039,33257
5918040,31824
5920042,30291
5922045,30447
5924048,28733
5926049,27123
5928050,27397
5930051,26801
5932052,26674
5934056,26439
5936059,25724
5938060,26278
5940064,25797
5942065,26144
5944066,8888
5946069,3845
5948071,24739
5950074,25964
5952075,26445
5954076,26630
5956076,25674
5958076,26194
5960080,25922
5962082,26243
5964083,26612
5966086,25968
5968087,26578
5970087,26363
5972087,25846
5974087,26561
5976089,25942
5978089,26514
5980090,26238
5982093,25652
5984095,25549
5986098,24592
5988100,24730
5990102,25070
5992102,24560
5994102,25214
5996102,24766
5998105,24981
6000105,25010
6002105,24559
6004105,23568
6006107,22668
6008110,22738
6010110,23206
6012110,22716
6014110,4213
6016110,18215
6018112,22396
6020114,24036
6022114,25207
6024116,26215
6026119,28215
6028120,27294
6030123,25036
6032123,4178
6034126,21152
6036128,25046
6038128,22492
6040130,22113
6042133,21567
6044135,21044
6046137,20541
6048139,19904
6050142,20778
6052143,20455
6054143,20559
6056145,20740
6058147,20501
6060148,21116
6062150,20954
6064152,20573
6066152,20765
6068152,20314
6070152,20694
6072155,20609
6074159,20382
6076163,21694
6078166,21600
6080168,22472
6082169,19504
6084169,18187
6086172,11516
6088175,17724
6090177,20605
6092179,46275
6094179,63142
6096180,63184
6098182,63155
6100183,53711
6102185,40903
6104186,8517
6106187,5368
6108189,6199
6110191,13877
6112193,19260
6114195,20028
6116196,21152
6118198,20513
6120199,19625
6122201,4011
6124201,16340
6126202,20342
6128202,20202
6130204,20437
6132205,20866
6134205,21361
6136209,21846
6138212,21621
6140213,20823
6142214,22376
6144216,22115
6146220,22187
6148223,22408
6150223,22123
6152224,22965
6154224,23529
6156224,23984
6158225,24745
6160227,24447
6162230,25189
6164232,25236
6166234,26030
6168237,26552
6170240,25950
6172243,27499
6174244,27544
6176244,27896
6178247,29356
6180250,29100
6182252,30902
6184254,31373
6186255,31219
6188259,32101
6190260,32921
6192261,34027
6194264,34687
6196265,35245
6198267,36216
6200269,35761
6202270,36829
6204270,37087
6206270,36767
6208273,9479
6210276,8413
6212278,33984
6214281,33942
6216283,32800
6218285,31873
6220285,30252
6222287,30044
6224287,28733
6226287,26940
6228287,27428
6230287,27000
6232289,26584
6234290,26526
6236290,25573
6238290,26278
6240290,25948
6242292,25945
6244294,25653
6246295,24937
6248297,25505
6250300,26235
6252303,26181
6254305,26772
6256308,25707
6258308,26183
6260308,26048
6262308,25972
6264310,26652
6266311,26305
6268312,26473
6270314,26412
6272315,25668
6274317,26572
6276320,26180
6278323,26444
6280326,26221
6282329,25580
6284329,25575
6286331,24527
6288333,24649
6290336,25095
6292336,24516
6294338,25141
6296338,24842
6298340,24786
6300341,25154
6302343,24553
6304343,23261
6306343,22794
6308346,22594
6310348,23243
6312351,22713
6314353,22540
6316354,22789
6318356,22630
6320357,24041
6322360,25517
6324363,26515
6326364,28338
6328365,27249
6330367,27214
6332370,25230
6334370,25336
6336371,25224
6338375,22480
6340379,22092
6342380,21516
6344380,20957
6346380,20512
6348380,19982
6350383,20755
6352386,20568
6354388,20285
6356389,20928
6358389,20639
6360393,21092
6362395,20978
6364396,20463
6366396,20824
6368398,20409
6370399,20651
6372402,20697
6374402,20297
6376405,21683
6378407,21723
6380411,22404
6382411,19226
6384414,16919
6386416,11420
6388416,18436
6390419,24266
6392419,46366
6394421,63017
6396421,63168
6398421,62967
6400423,51821
6402426,35044
6404428,8185
6406430,5406
6408431,6283
6410431,13883
6412431,19342
6414434,20029
6416436,21114
6418438,20608
6420442,20409
6422443,20048
6424443,19851
6426447,20373
6428447,20272
6430448,20414
6432451,21069
6434453,21360
6436455,21768
6438459,21418
6440462,20785
6442466,22410
6444466,22115
6446466,22200
6448466,22440
6450470,22133
6452473,22939
6454475,23565
6456477,24033
6458479,24741
6460481,24493
6462484,25249
6464487,25254
6466488,26145
6468488,26609
6470489,25996
6472491,27476
6474493,27693
6476494,27965
6478497,29429
6480499,29386
6482501,30903
6484502,31415
6486504,31307
6488504,32074
6490506,33011
6492509,34003
6494510,34782
6496510,35246
6498513,36151
6500517,35783
6502520,36966
6504522,37063
6506525,36882
6508527,63198
6510527,63108
6512529,36107
6514530,33816
6516531,32623
6518535,31778
6520536,30063
6522539,29995
6524543,28501
6526545,27297
6528547,27397
6530549,26740
6532551,26696
6534553,26228
6536555,25866
6538557,26241
6540558,25625
6542561,26209
6544563,25419
6546566,25098
6548568,25498
6550572,25608
6552574,26521
6554575,26474
6556576,25745
6558579,26312
6560582,25773
6562586,26475
6564587,26474
6566588,26000
6568592,26614
6570592,26013
6572592,26079
6574592,26490
6576595,25950
6578595,26624
6580596,25966
6582596,25648
6584598,25523
6586599,24230
6588600,25036
6590602,24917
6592603,24823
6594603,25178
6596606,24571
6598607,25050
6600609,25031
6602613,24753
6604617,23245
6606617,22382
6608620,22907
6610622,23159
6612623,22586
6614623,22626
6616637,22388
6618637,23378
6620638,23928
6622642,25509
6624642,27277
6626645,27909
6628646,27689
6630649,26954
6632652,24986
6634653,25567
6636654,24244
6638655,22898
6640655,21994
6642656,21045
6644660,21118
6646660,20321
6648661,20357
6650663,20767
6652664,20249
6654666,20763
6656669,20611
6658671,20763
6660673,21154
6662674,20665
6664676,20728
6666676,20707
6668679,20449
6670681,20775
6672683,20292
6674686,20606
6676686,21715
6678687,21542
6680689,22594
6682692,18796
6684692,15336
6686694,11324
6688695,18696
6690697,30648
6692698,46517
6694700,63095
6696702,63255
6698704,63159
6700706,50027
6702706,30177
6704710,8051
6706710,5171
6708713,8329
6710716,14080
6712720,19517
6714721,20410
6716724,21089
6718725,20281
6720726,20431
6722726,19912
6724729,20046
6726729,20449
6728729,20066
6730732,20523
6732733,21249
6734736,21362
6736737,21927
6738738,21228
6740738,20960
6742739,22440
6744742,21915
6746742,22225
6748743,22404
6750747,22420
6752751,22977
6754751,23660
6756751,24288
6758754,24584
6760756,24489
6762759,25182
6764763,25001
6766766,26173
6768767,26497
6770768,25981
6772770,27438
6774774,27250
6776776,28246
6778778,29192
6780779,28859
6782782,30974
6784783,31153
6786785,31467
6788788,32013
6790789,32567
6792791,33905
6794793,34525
6796795,35373
6798797,36060
6800799,35694
6802800,36943
6804804,36789
6806804,37081
6808804,36684
6810806,35695
6812806,35046
6814810,33872
6816812,33528
6818813,31820
6820813,30199
6822813,30635
6824814,28601
6826816,27516
6828817,27351
6830818,26719
6832818,26804
6834821,26314
6836823,25872
6838825,26254
6840826,25649
6842827,26177
6844828,25571
6846829,25031
6848831,25561
6850833,8953
6852834,4049
6854834,25543
6856835,25649
6858839,26275
6860843,25816
6862846,26327
6864846,26566
6866846,26016
6868850,26614
6870852,26221
6872854,26028
6874855,26480
6876855,25985
6878857,26635
6880860,26072
6882862,25869
6884864,25559
6886864,24340
6888868,24762
6890869,24951
6892870,24733
6894871,25128
6896875,24584
6898877,25090
6900878,25003
6902879,24627
6904881,23529
6906884,22480
6908884,22892
6910885,23135
6912886,22792
6914886,22652
6916887,22550
6918888,22847
6920891,23956
6922892,24941
6924893,26234
6926894,28031
6928896,27636
6930899,27700
6932901,25165
6934903,25659
6936904,25232
6938905,22959
6940907,22123
6942908,21381
6944908,21094
6946910,20438
6948912,20100
6950914,20781
6952914,20354
6954914,20691
6956918,20664
6958919,20576
6960921,21183
6962925,20784
6964927,20759
6966928,20671
6968932,20215
6970936,20763
6972939,20416
6974940,20579
6976942,21655
6978944,21359
6980946,22554
6982949,19254
6984949,18156
6986949,11446
6988951,17658
6990953,20843
6992953,45928
6994953,63220
6996954,63155
6998957,63186
7000958,54552
7002961,45701
7004962,9023
7006966,5538
7008969,5049
7010969,13863
7012969,18728
7014970,20179
7016972,21096
7018973,20353
7020973,20665
7022976,19914
7024977,20042
7026980,20367
7028982,19946
7030986,20672
7032989,20567
7034992,21403
7036992,21930
7038992,21504
7040994,21056
7042994,22127
7044994,22009
7046997,22287
7049001,21972
7051001,22413
7053003,22917
7055005,23228
7057006,24108
7059007,24506
7061009,24781
7063012,25142
7065013,24909
7067014,26394
7069014,26414
7071016,26210
7073018,27549
7075020,27137
7077020,28298
7079022,29144
7081026,28963
7083029,30990
7085029,30980
7087030,31531
7089033,31901
7091036,32845
7093038,34068
7095039,34354
7097041,35705
7099042,36015
7101044,35686
7103047,37119
7105050,36581
7107052,37388
7109054,36510
7111057,35550
7113058,35092
7115062,33552
7117064,33669
7119064,31943
7121066,30251
7123069,30504
7125072,28285
7127074,27612
7129077,27272
7131080,26820
7133081,26780
7135081,26037
7137085,26151
7139087,26173
7141089,25698
7143090,26276
7145091,25267
7147092,25376
7149093,25534
7151094,25720
7153095,26648
7155095,26341
7157098,26008
7159099,26242
7161102,25579
7163103,26483
7165104,26407
7167106,26205
7169109,26620
7171110,25962
7173112,26201
7175113,26410
7177113,26058
7179116,26614
7181117,25882
7183117,25978
7185118,25500
7187122,24367
7189126,24837
7191129,24690
7193131,25029
7195132,25054
7197132,24551
7199133,25182
7201134,24837
7203134,24959
7205135,23221
7207139,22394
7209141,22983
7211144,22962
7213145,23077
7215145,22582
7217147,22310
7219150,23017
7221150,23839
7223151,25407
7225153,26458
7227154,27792
7229157,27793
7231158,27377
7233159,25105
7235160,25445
7237160,24619
7239162,22969
7241162,21983
7243162,21245
7245164,21186
7247165,20223
7249168,20349
7251171,20695
7253173,20244
7255173,20787
7257176,20545
7259179,63237
7261181,63109
7263182,22556
7265183,20860
7267185,20469
7269186,20587
7271188,20751
7273190,20261
7275190,20721
7277190,21483
7279193,21684
7281196,22702
7283198,18694
7285199,18082
7287201,11371
7289203,17825
7291206,23791
7293208,45989
7295211,63319
7297214,63248
7299215,63065
7301216,52898
7303217,39263
7305219,8433
7307223,5302
7309226,7124
7311229,13942
7313233,18935
7315233,20579
7317233,20899
7319234,20525
7321235,20717
7323239,19555
7325242,20299
7327244,20258
7329248,20096
7331250,20680
7333252,20504
7335252,21726
7337253,21768
7339253,21241
7341254,21074
7343255,22067
7345258,22251
7347258,22224
7349258,21790
7351258,22679
7353260,22764
7355264,23614
7357266,24286
7359268,24173
7361269,25044
7363272,25044
7365272,25106
7367272,26468
7369275,26106
7371279,26522
7373281,27341
7375284,27266
7377287,28438
7379288,28836
7381290,29698
7383293,30874
7385293,31008
7387295,31831
7389297,31584
7391298,33330
7393302,34080
7395306,34287
7397308,35987
7399312,35850
7401313,36534
7403316,37098
7405317,36464
7407320,37541
7409323,36103
7411325,35906
7413328,34892
7415329,33370
7417329,33370
7419329,31271
7421331,30650
7423332,29994
7425334,28220
7427336,27585
7429339,26914
7431343,27235
7433344,26639
7435346,25969
7437349,26332
7439350,25872
7441351,26054
7443353,26010
7445355,25031
7447356,25539
7449356,25210
7451358,26183
7453360,26610
7455364,25976
7457365,26300
7459367,25964
7461369,25916
7463372,26497
7465374,25996
7467377,26615
7469379,26315
7471380,26105
7473381,26275
7475382,26006
7477385,26638
7479387,26436
7481391,25852
7483393,26123
7485395,24991
7487399,24821
7489402,24775
7491405,24633
7493407,25202
7495408,24714
7497409,25032
7499411,25055
7501413,24557
7503414,25187
7505415,22937
7507416,22766
7509417,22908
7511419,22700
7513421,23177
7515422,22320
7517423,22626
7519424,16902
7521427,3818
7523428,23290
7525428,26706
7527430,27779
7529432,27856
7531432,26559
7533433,25417
7535437,25425
7537441,24022
7539443,23025
7541444,21708
7543446,21798
7545449,21091
7547452,20028
7549454,20508
7551455,20518
7553456,20589
7555456,20771
7557458,20265
7559458,21054
7561462,14925
7563464,3745
7565465,18742
7567466,20319
7569468,20672
7571471,20689
7573472,20292
7575472,20796
7577474,5659
7579474,8504
7581476,22171
7583476,18630
7585477,16671
7587479,11255
7589480,18504
7591481,27074
7593484,45929
7595486,63073
7597487,63171
7599489,63203
7601491,51043
7603492,31613
7605492,8110
7607492,5180
7609492,8305
7611495,14031
7613497,19314
7615498,20677
7617501,20973
7619503,20395
7621505,20531
7623507,19730
7625508,20247
7627510,20314
7629513,19930
7631513,20735
7633516,20841
7635519,21706
7637521,21814
7639523,21058
7641524,21172
7643525,22199
7645527,22205
7647528,22236
7649530,21991
7651532,22734
7653533,22750
7655533,23605
7657533,24428
7659536,24314
7661540,25073
7663541,25180
7665542,24923
7667545,26506
7669546,26191
7671546,26454
7673547,27539
7675548,27502
7677549,28453
7679552,29060
7681555,29823
7683557,30962
7685559,30836
7687561,31857
7689562,31704
7691565,33337
7693566,34450
7695566,34309
7697569,35991
7699570,35929
7701570,35956
7703571,37101
7705572,36562
7707576,37499
7709578,36265
7711582,35402
7713584,35054
7715585,33283
7717586,33141
7719586,31516
7721587,30411
7723588,29771
7725588,28130
7727588,27466
7729589,27163
7731590,26885
7733594,26719
7735594,25900
7737594,26216
7739594,26126
7741595,25675
7743596,26296
7745597,25187
7747597,25426
7749597,25447
7752136,26558
7754140,25961
7756141,26514
7758144,26018
7760147,7965
7762148,5653
7764148,25416
7766149,26427
7768152,26537
7770154,25994
7772157,26402
7774160,25852
7776164,26455
7778164,26556
7780167,25998
7782168,26303
7784169,25373
7786169,25300
7788170,24761
7790173,24405
7792174,25128
7794178,24822
7796178,62918
7798179,63243
7800180,26698
7802183,25251
7804184,24857
7806185,22572
7808187,22888
7810188,22398
7812191,23291
7814191,22600
7816193,22191
7818197,22956
7820197,23309
7822201,24066
7824204,26039
7826206,27431
7828209,28415
7830212,27219
7832216,25918
7834218,25407
7836220,25013
7838222,9106
7840223,3582
7842226,21133
7844226,21200
7846226,20619
7848229,20408
7850229,20479
7852231,20555
7854235,20688
7856235,20261
7858236,20788
7860239,20955
7862239,20817
7864243,21075
7866245,20293
7868245,20768
7870248,20674
7872251,20393
7874251,20751
7876251,20390
7878253,21740
7880256,22322
7882258,22091
7884260,18748
7886262,12680
7888263,11702
7890266,19713
7892268,40093
7894270,48864
7896272,63145
7898274,63445
7900277,63249
7902278,46735
7904279,15073
7906280,7453
7908283,4999
7910286,11908
7912289,21006
7914289,63161
7916290,33775
7918293,21435
7920294,20615
7922298,19982
7924300,20092
7926301,19975
7928304,20373
7930306,20294
7932306,20326
7934309,21679
7936312,21493
7938315,21804
7940317,21189
7942318,20861
7944318,22606
7946318,22040
7948321,22109
7950324,22506
7952325,22360
7954325,23023
7956329,23697
7958331,24399
7960331,24794
7962331,24503
7964331,25451
7966335,25438
7968338,26165
7970341,26636
7972344,26145
7974347,27723
7976347,28125
7978350,28130
7980352,29556
7982352,30167
7984352,31088
7986356,31587
7988359,31428
7990359,32282
7992362,33209
7994364,34549
7996364,34961
7998366,35393
8000367,36398
8002370,35898
8004372,36925
8006374,37315
8008374,36678
8010377,36569
8012377,34680
8014377,34622
8016381,33849
8018382,31501
8020385,31662
8022387,30024
8024389,29137
8026393,28452
8028394,26947
8030396,27412
8032399,26681
8034399,26592
8036399,26194
8038401,25683
8040404,26254
8042407,25619
8044409,25924
8046410,25478
8048414,24994
8050417,25842
8052418,26115
8054418,7546
8056419,6371
8058423,24979
8060426,26236
8062430,25914
8064433,26396
8066436,26579
8068439,25952
8070441,26658
8072443,25994
8074446,26020
8076447,26760
8078447,25966
8080450,26519
8082452,25980
8084454,25317
8086454,25314
8088458,24211
8090461,25114
8092464,24952
8094465,24811
8096466,25124
8098468,24601
8100471,25115
8102471,24987
8104475,24339
8106478,23037
8108479,22470
8110480,22991
8112483,23213
8114485,22248
8116485,22716
8118488,22538
8120489,23736
8122490,24242
8124492,25544
8126493,27997
8128497,27953
8130500,27516
8132502,25846
8134504,24917
8136504,25556
8138505,23061
8140509,22528
8142509,21882
8144509,20729
8146509,20947
8148511,20253
8150513,20403
8152513,20773
8154515,20311
8156515,20779
8158516,20728
8160518,20739
8162521,21134
8164523,20725
8166524,20679
8168527,20695
8170531,20221
8172533,20809
8174535,20473
8176537,20891
8178539,21738
8180542,21915
8182542,21571
8184543,18448
8186545,12169
8188548,13933
8190552,19359
8192552,43018
8194553,55881
8196553,63133
8198554,63243
8200554,63143
8202557,46775
8204559,13503
8206559,6894
8208562,4986
8210563,12605
8212564,15850
8214565,20063
8216565,20756
8218565,20997
8220569,20286
8222573,20144
8224575,19968
8226576,20110
8228579,20397
8230583,20055
8232585,20747
8234587,21569
8236589,21513
8238589,21931
8240593,20839
8242595,21373
8244597,22421
8246599,21777
8248599,22344
8250600,22333
8252602,22744
8254602,16639
8256603,3843
8258606,22157
8260606,24597
8262606,24853
8264606,25491
8266607,25373
8268607,26525
8270608,26490
8272611,26444
8274611,27736
8276613,27797
8278616,28470
8280616,29388
8282619,30140
8284620,31189
8286642,31083
8288645,31985
8290646,32470
8292649,33286
8294652,34904
8296655,34548
8298657,36068
8300657,36263
8302657,36065
8304661,37245
8306663,36859
8308665,36960
8310667,36207
8312668,34632
8314669,34756
8316670,33251
8318673,31975
8320675,21947
8322677,3959
8324679,25878
8326681,27663
8328685,27324
8330687,27267
8332688,26538
8334689,26766
8336692,25801
8338696,26162
8340698,26092
8342698,25645
8344698,25998
8346698,25150
8348700,25351
8350701,25842
8352705,25966
8354708,26648
8356708,51484
8358708,62884
8360711,32843
8362713,25948
8364717,26658
8366718,26243
8368720,26441
8370720,26576
8372723,25651
8374725,26439
8376725,26357
8378728,26317
8380730,26413
8382731,25629
8384732,25583
8386734,25098
8388736,24449
8390738,25118
8392739,24569
8394739,25119
8396742,24991
8398743,24706
8400744,25174
8402747,24623
8404750,24159
8406752,22860
8408753,22554
8410754,23087
8412756,22927
8414757,22638
8416759,22606
8418763,22435
8420766,23967
8422767,24415
8424768,26018
8426770,28118
8428771,27515
8430771,27752
8432773,25529
8434776,25274
8436780,25501
8438780,22560
8440781,22478
8442784,21672
8444788,21030
8446790,20859
8448793,19908
8450794,20755
8452796,20538
8454799,20559
8456800,20735
8458802,20437
8460805,21128
8462807,20956
8464809,20625
8466810,20781
8468812,20361
8470813,20683
8472814,20708
8474817,20345
8476818,21297
8478821,21529
8480822,22376
8482822,20589
8484826,18184
8486826,12099
8488826,14108
8490827,19747
8492830,44328
8494832,62605
8496833,63140
8498834,63184
8500837,63235
8502838,46657
8504839,11226
8506843,6286
8508845,4941
8510848,13344
8512849,17188
8514850,19853
8516853,21065
8518856,20626
8520859,20639
8522863,20086
8524864,19702
8526867,20411
8528868,20128
8530872,20412
8532875,20773
8534879,21245
8536879,21927
8538883,21612
8540883,20978
8542883,21838
8544886,22021
8546886,22264
8548887,22197
8550890,22280
8552893,63235
8554894,53887
8556896,24920
8558899,24496
8560901,24647
8562903,25094
8564904,24895
8566908,25981
8568911,26299
8570911,26235
8572911,27230
8574913,27120
8576915,28336
8578918,28785
8580918,29028
8582919,30915
8584920,30732
8586924,31607
8588926,31881
8590930,32464
8592930,33916
8594932,34321
8596934,35194
8598937,35909
8600940,35792
8602941,36849
8604942,36540
8606945,37379
8608948,36895
8610950,35802
8612951,35205
8614953,33806
8616953,33792
8618956,31758
8620959,30528
8622961,30694
8624964,28408
8626964,27879
8628966,27214
8630966,26836
8632968,27050
8634969,26221
8636971,26076
8638974,26184
8640975,25696
8642977,26271
8644977,25569
8646979,25273
8648983,25541
8650984,25487
8652985,26571
8654986,26378
8656990,26051
8658990,26271
8660993,25656
8662996,26452
8664998,26318
8666999,26107
8669001,26642
8671004,26060
8673005,26146
8675008,26313
8677009,26016
8679009,26640
8681012,25937
8683013,26107
8685014,25455
8687015,24579
8689016,24804
8691017,24809
8693018,24927
8695018,25141
8697019,24536
8699021,25152
8701024,24794
8703024,24829
8705025,24086
8707026,22438
8709028,22927
8711031,22936
8713031,22976
8715031,22669
8717031,22313
8719034,22873
8721036,23929
8723036,24727
8725036,26290
8727040,27904
8729043,27718
8731046,27726
8733047,25088
8735048,25572
8737050,25167
8739053,23057
8741053,22384
8743055,21355
8745057,21218
8747058,20515
8749062,20239
8751065,20699
8753067,20259
8755069,20759
8757072,20547
8759076,20779
8761077,21099
8763078,20603
8765078,20876
8767079,20637
8769080,20413
8771081,20785
8773081,20305
8775082,20716
8777086,21186
8779089,21397
8781092,22537
8783094,20084
8785094,18576
8787097,11676
8789099,15759
8791100,19985
8793104,44684
8795105,63159
8797105,63199
8799108,9105
8801110,29661
8803110,45474
8805110,9856
8807112,6151
8809112,4917
8811114,13474
8813118,17175
8815122,20327
8817123,20996
8819126,20422
8821129,20806
8823130,19843
8825132,20118
8827135,20390
8829138,19938
8831141,20639
8833144,20541
8835147,21608
8837151,58495
8839151,63213
8841153,25544
8843155,21936
8845155,22396
8847156,22240
8849158,21864
8851160,22576
8853161,22691
8855161,23227
8857162,24055
8859164,24184
8861164,24967
8863166,24993
8865167,24998
8867168,26197
8869169,26037
8871170,26510
8873172,26856
8875172,27068
8877175,28406
8879177,28321
8881180,29345
8883182,30756
8885183,30576
8887185,31764
8889186,31660
8891190,32579
8893190,33843
8895191,34172
8897194,35553
8899194,35655
8901194,36051
8903197,36669
8905199,36402
8907199,37514
8909202,36781
8911205,36129
8913206,35158
8915209,33856
8917209,33968
8919212,31643
8921214,30991
8923215,30636
8925216,28292
8927218,28209
8929220,27045
8931220,27050
8933221,27183
8935221,26020
8937224,26317
8939226,26006
8941228,25868
8943230,26242
8945231,25392
8947231,25471
8949232,25429
8951234,25359
8953236,26603
8955237,26171
8957241,26357
8959244,26065
8961246,25733
8963248,26479
8965248,26189
8967251,26510
8969253,26562
8971254,25994
8973258,26340
8975262,26018
8977264,26467
8979267,63243
8981270,58932
8983272,27274
8985274,25110
8987278,25068
8989279,24684
8991279,24607
8993279,25193
8995282,24713
8997284,25061
8999286,25050
9001286,24591
9003289,25445
9005291,24002
9007294,22908
9009296,22884
9011300,22544
9013302,23330
9015304,22377
9017305,22608
9019306,22899
9021307,23344
9023310,25050
9025311,25968
9027312,27884
9029312,28164
9031315,27101
9033317,25806
9035318,25651
9037320,25095
9039322,23269
9041324,22097
9043327,21842
9045327,21120
9047327,20441
9049330,20413
9051332,20381
9053333,20519
9055333,20691
9057337,20297
9059340,20932
9061343,20893
9063344,20826
9065345,20972
9067348,20233
9069348,20766
9071349,20581
9073352,20500
9075354,20784
9077356,20694
9079358,21830
9081360,22262
9083360,20595
9085360,18689
9087364,11769
9089366,15040
9091366,19878
9093368,43262
9095371,60751
9097371,63171
9099373,63252
9101373,63159
9103377,45732
9105380,11152
9107380,6496
9109380,4959
9111383,13074
9113384,16170
9115384,20293
9117386,20764
9119388,20834
9121389,20765
9123390,19583
9125394,20196
9127394,20233
9129396,20189
9131398,20600
9133399,20245
9135401,21755
9137405,21718
9139405,21569
9141408,21183
9143409,21443
9145409,22524
9147409,22213
9149411,21971
9151414,22615
9153416,22481
9155416,23245
9157419,23975
9159420,24135
9161420,24961
9163421,24807
9165424,25290
9167424,25998
9169428,25937
9171432,26642
9173434,26892
9175434,27411
9177437,28374
9179441,28398
9181441,29529
9183443,30644
9185446,30943
9187446,31742
9189449,31368
9191452,32811
9193455,33627
9195457,34347
9197459,35561
9199461,35349
9201461,36362
9203462,36661
9205465,36464
9207466,37578
9209468,36275
9211471,36396
9213472,34880
9215473,33879
9217476,33956
9219477,31209
9221481,31066
9223482,30432
9225483,28585
9227486,28180
9229488,26724
9231488,27313
9233488,26817
9235489,26092
9237489,26343
9239491,25806
9241494,26074
9243496,26140
9245497,25300
9247499,25559
9249501,25126
9251501,26004
9253503,26475
9255503,26002
9257505,26375
9259509,25812
9261511,26097
9263513,26397
9265516,26000
9267519,63189
9269520,52013
9271521,27185
9273522,26201
9275523,25898
9277523,26646
9279526,26195
9281529,26235
9283529,26230
9285529,24952
9287529,25116
9289531,24475
9291535,24886
9293537,25135
9295538,24521
9297541,25163
9299543,24930
9301545,24845
9303547,25156
9305548,23375
9307548,22951
9309550,22780
9311552,22804
9313555,23350
9315558,22168
9317561,22773
9319564,22867
9321566,23456
9323566,25110
9325569,25784
9327569,28037
9329570,28011
9331573,27123
9333574,25715
9335575,25169
9337576,25264
9339578,23131
9341579,21842
9343579,21902
9345579,20946
9347581,20492
9349582,20416
9351584,20269
9353585,20701
9355587,20644
9357590,20391
9359593,20890
9361595,20756
9363596,21013
9365596,20928
9367596,20277
9369597,20793
9371599,20501
9373599,20591
9375600,20791
9377600,20859
9379600,21824
9381600,22446
9383600,20012
9385600,18640
9387600,11561
9389600,16273
9391600,19941
9393601,44373
9395604,62852
9397606,63165
9399606,63205
9401608,61605
9403608,45519
9405611,10653
9407613,6074
9409615,4977
9411616,13387
9413616,17054
9415619,20358
9417620,20787
9419622,20713
9421625,20724
9423627,19594
9425629,20270
9427631,20138
9429631,20162
9431632,20639
9433635,20298
9435635,21770
9437635,21719
9439637,21557
9441638,21228
9443641,21424
9445642,22524
9447644,22172
9449648,21994
9451648,22630
9453651,22536
9455651,23407
9457654,23995
9459654,24126
9461657,25022
9463660,24798
9465662,25304
9467664,26171
9469665,25989
9471669,26642
9473670,27058
9475671,27371
9477672,28397
9479674,28370
9481677,29533
9483679,30712
9485679,30908
9487679,31776
9489679,31399
9491682,33114
9493684,33734
9495685,34313
9497687,35636
9499687,35485
9501690,36235
9503691,36827
9505693,36468
9507694,37556
9509696,36255
9511699,36209
9513701,5702
9515703,19988
9517707,33619
9519708,31328
9521710,30944
9523712,30542
9525715,28329
9527717,27951
9529718,26964
9531719,27223
9533721,26806
9535722,26042
9537725,26314
9539728,25872
9541729,26073
9543733,26094
9545733,25156
9547733,25576
9549734,25224
9551735,25875
9553736,26502
9555736,25965
9557739,26402
9559741,25964
9561742,25760
9563743,26505
9565744,26026
9567744,26586
9569746,26458
9571750,26102
9573751,26293
9575753,25984
9577757,26552
9579759,26499
9581761,25756
9583763,26255
9585764,25121
9587768,24887
9589771,24730
9591773,24549
9593776,25191
9595778,24729
9597781,25030
9599782,25102
9601782,24570
9603784,25167
9605786,23447
9607788,22747
9609791,22946
9611793,22650
9613794,23342
9615796,22404
9617799,22630
9619801,22920
9621803,23459
9623803,25359
9625803,26033
9627805,27769
9629807,12575
9631810,3666
9633812,24258
9635812,25385
9637816,25031
9639818,23117
9641820,21846
9643821,21805
9645822,21087
9647826,20221
9649828,20459
9651831,20477
9653832,20650
9655832,20725
9657835,20249
9659838,20984
9661840,20951
9663842,20895
9665842,20898
9667845,20256
9669848,20749
9671850,20641
9673852,20455
9675854,20777
9677858,21016
9679859,21806
9681862,22461
9683863,19399
9685863,18661
9687863,11367
9689866,17444
9691869,19988
9693869,44965
9695869,63199
9697872,63207
9699875,63188
9701877,57363
9703877,45508
9705877,9628
9707880,5719
9709880,4919
9711881,13662
9713882,17965
9715882,20376
9717884,4231
9719887,15599
9721887,20649
9723887,19615
9725891,20289
9727895,20283
9729895,20046
9731895,20711
9733898,20389
9735899,21666
9737902,21816
9739904,21373
9741906,21180
9743908,21812
9745908,22417
9747909,22204
9749911,21916
9751912,22564
9753914,22726
9755914,23333
9757918,24067
9759921,24165
9761924,24986
9763924,24977
9765928,25083
9767929,26358
9769932,26120
9771935,26551
9773937,27339
9775937,27207
9777937,28438
9779939,28727
9781941,29392
9783944,30853
9785945,30799
9787948,31776
9789949,31692
9791950,32973
9793950,33860
9795950,34141
9797951,35767
9799952,35735
9801953,35893
9803953,37043
9805955,36431
9807958,37453
9809960,36492
9811963,35902
9813964,35081
9815965,33554
9817965,33861
9819967,31604
9821970,30492
9823972,30672
9825972,28243
9827973,27757
9829975,27162
9831978,26968
9833978,26844
9835978,26051
9837981,26179
9839984,26158
9841985,25703
9843985,26302
9845985,25294
9847986,25404
9849988,25504
9851990,25653
9853991,26654
9855992,26335
9857993,26016
9859995,26267
9861997,25635
9863998,26488
9866002,26374
9868002,26191
9870002,26638
9872006,26043
9874006,26245
9876009,26349
9878011,26093
9880015,26650
9882018,25780
9884020,26214
9886022,25416
9888023,24443
9890026,24837
9892026,24637
9894030,25090
9896031,25070
9898032,24591
9900032,25181
9902035,24724
9904035,25042
9906038,23430
9908039,22430
9910041,23031
9912045,22900
9914048,23209
9916049,22562
9918049,22272
9920053,22848
9922056,23733
9924057,25327
9926060,26233
9928060,27691
9930063,27903
9932066,27516
9934067,25322
9936069,25555
9938070,24912
9940072,23050
9942075,21946
9944075,21600
9946076,21193
9948078,20096
9950079,20401
9952082,20593
9954082,20313
9956085,20821
9958085,20387
9960087,20912
9962090,21072
9964092,20620
9966095,20890
9968099,20419
9970099,20597
9972103,20645
9974104,20241
9976108,20789
9978108,21327
9980111,21742
9982113,22542
9984117,18975
9986118,17997
9988121,11296
9990122,17491
9992122,21768
9994125,45467
9996128,63287
9998128,63283
10000130,63182
10002133,54985
10004135,45137
10006138,8911
10008138,5472
10010138,5472
10012139,13827
10014142,18514
10016142,20407
10018145,20922
10020147,20591
10022150,20715
10024153,19603
10026154,20359
10028156,20340
10030158,20048
10032158,20697
10034159,20367
10036160,21726
10038162,21809
10040164,21369
10042164,21194
10044166,21990
10046166,22334
10048167,22253
10050168,21941
10052169,22639
10054169,22782
10056173,23502
10058175,24126
10060177,24184
10062180,25068
10064180,25050
10066181,25014
10068182,26460
10070185,26097
10072188,26566
10074191,27355
10076192,27150
10078195,28443
10080198,28892
10082201,29409
10084202,30902
10086202,30866
10088202,31742
10090202,31620
10092206,63177
10094207,63227
10096208,36144
10098208,35997
10100211,35680
10102213,36232
10104216,37017
10106216,36520
10108219,37608
10110223,36207
10112224,36207
10114226,34994
10116228,33436
10118231,33717
10120232,31195
10122232,30594
10124235,30252
10126237,28210
10128237,27647
10130241,26880
10132241,27139
10134243,26590
10136243,25902
10138247,26209
10140247,25956
10142251,26069
10144252,26233
10146255,25078
10148258,25500
10150261,25299
10152265,26012
10154267,26612
10156270,25993
10158273,26352
10160275,25990
10162279,25872
10164281,26520
10166282,25978
10168282,26536
10170282,26426
10172284,26043
10174285,26297
10176288,26077
10178292,26544
10180296,26444
10182299,25846
10184299,26214
10186301,24972
10188302,24806
10190304,24749
10192306,24565
10194306,25190
10196306,24777
10198306,25020
10200308,25090
10202310,24559
10204310,25184
10206310,23261
10208312,22724
10210312,22929
10212316,22739
10214319,23302
10216321,22412
10218324,22571
10220327,23071
10222327,23432
10224330,25760
10226333,26383
10228337,27939
10230340,7726
10232341,7092
10234342,24894
10236345,25361
10238347,24631
10240350,23050
10242352,21592
10244352,21764
10246353,21089
10248354,20147
10250357,20487
10252358,20478
10254360,20599
10256360,20708
10258361,20256
10260362,21065
10262364,20849
10264366,20958
10266370,20816
10268372,20246
10270372,20803
10272373,20583
10274373,20447
10276376,20743
10278376,21262
10280377,22044
10282380,22444
10284381,19125
10286384,17848
10288387,11226
10290390,18298
10292392,22542
10294393,45383
10296394,63232
10298394,63229
10300395,63277
10302395,52965
10304398,38159
10306400,8347
10308402,5259
10310405,6702
10312408,13813
10314409,19173
10316410,20477
10318413,20731
10320416,20691
10322419,20601
10324421,19634
10326422,20410
10328422,20116
10330422,20251
10332424,20714
10334425,20449
10336425,21882
10338429,21677
10340430,21448
10342430,21136
10344432,21816
10346433,22524
10348433,22135
10350434,22101
10352435,22716
10354438,22531
10356441,23819
10358441,24070
10360442,24166
10362442,25148
10364444,24895
10366446,25345
10368450,26420
10370453,41177
10372455,63163
10374455,36442
10376455,28008
10378456,28410
10380458,28726
10382461,29907
10384464,30690
10386466,31369
10388469,31824
10390472,31339
10392474,33671
10394475,33928
10396478,34437
10398478,35943
10400479,35415
10402479,36426
10404482,36895
10406484,36645
10408486,37299
10410486,35904
10412487,36065
10414490,34807
10416490,33558
10418494,33322
10420494,31116
10422497,30656
10424500,29827
10426503,28447
10428503,27542
10430505,26756
10432509,27311
10434511,26532
10436513,26124
10438513,26289
10440514,25653
10442516,20181
10444517,3937
10446517,21878
10448520,25480
10450523,25078
10452523,26235
10454524,26552
10456524,25958
10458528,26315
10460529,25922
10462529,25977
10464532,26557
10466535,25974
10468535,26610
10470535,6872
10472537,8289
10474538,25716
10476538,26006
10478539,26493
10480542,26496
10482542,25760
10484542,26022
10486546,25111
10488547,24777
10490550,24903
10492551,24583
10494552,25191
10496553,24781
10498555,24953
10500558,25080
10502561,24533
10504564,25182
10506566,22978
10508566,22780
10510569,22930
10512569,22710
10514571,23141
10516573,22423
10518576,22686
10520577,23265
10522580,23476
10524582,25954
10526582,26774
10528583,27907
10530584,27823
10532587,26397
10534587,25521
10536590,25432
10538592,24635
10540595,23007
10542595,21621
10544598,21650
10546601,21085
10548602,20148
10550604,20533
10552604,20395
10554606,20679
10556606,20664
10558609,20362
10560610,21129
10562610,20872
10564613,20984
10566615,20799
10568617,20273
10570621,20799
10572624,20502
10574627,20437
10576652,20674
10578653,21283
10580656,22115
10582656,22219
10584658,19038
10586658,16152
10588660,11178
10590663,18989
10592665,28300
10594667,45786
10596667,62796
10598669,63225
10600670,63219
10602672,50503
10604673,31962
10606674,8080
10608676,5264
10610677,7703
10612680,13785
10614681,19478
10616684,20544
10618686,20593
10620688,20832
10622690,20262
10624690,19916
10626692,20377
10628694,19901
10630696,20423
10632696,20521
10634696,20946
10636697,21884
10638699,21351
10640701,21521
10642702,20938
10644704,22098
10646706,22473
10648709,21790
10650712,22496
10652714,22556
10654715,22524
10656715,23939
10658717,23813
10660717,24613
10662719,25044
10664721,24806
10666723,25543
10668725,26113
10670727,26430
10672728,26530
10674732,27005
10676732,28081
10678734,28051
10680738,29258
10682739,30234
10684740,30331
10686742,31696
10688745,31453
10690748,31828
10692749,33665
10694751,33552
10696753,34954
10698756,35509
10700759,35933
10702761,36397
10704763,36396
10706766,37384
10708767,37116
10710769,36380
10712771,35690
10714772,34361
10716775,34072
10718775,32214
10720775,31507
10722778,30692
10724781,29378
10726781,28886
10728782,27106
10730785,27303
10732787,27297
10734791,26089
10736792,26486
10738792,25864
10740794,26065
10742794,26182
10744796,25627
10746796,25629
10748799,25182
10750803,25340
10752805,26474
10754806,25956
10756809,26631
10758809,25992
10760809,25911
10762811,26299
10764812,25976
10766813,26566
10768817,26440
10770821,26243
10772821,26482
10774823,25730
10776827,26558
10778830,26430
10780833,26127
10782834,26348
10784837,25294
10786841,25503
10788843,24703
10790843,24548
10792844,25228
10794844,24679
10796846,25068
10798847,25042
10800849,24568
10802853,25171
10804853,24765
10806856,23064
10808860,22870
10810862,22488
10812863,23316
10814864,22576
10816868,22529
10818870,22814
10820873,22834
10822873,24071
10824874,25716
10826877,26876
10828880,28398
10830883,27134
10832885,26796
10834886,25238
10836886,25264
10838887,24300
10840888,22422
10842888,21988
10844888,21282
10846889,20835
10848890,20504
10850891,20198
10852895,20731
10854899,20592
10856903,20473
10858903,20811
10860904,20671
10862905,21068
10864907,21012
10866907,20325
10868909,20741
10870910,20467
10872911,20655
10874911,20697
10876911,20269
10878914,21798
10880917,22036
10882921,22392
10884925,18865
10886927,14242
10888930,11313
10890930,19262
10892932,34114
10894934,46787
10896937,63384
10898938,63278
10900941,63151
10902942,48690
10904943,27022
10906943,7903
10908945,5127
10910945,9712
10912947,13997
10914948,19916
10916951,20283
10918954,21114
10920957,20565
10922957,20125
10924959,20090
10926962,19880
10928965,20429
10930967,20228
10932967,20447
10934971,21311
10936973,21366
10938976,21858
10940979,21336
10942983,20819
10944983,22503
10946986,21947
10948986,22220
10950989,22442
10952992,22340
10954993,22972
10956994,23510
10958997,24413
10961000,24689
10963000,24629
10965001,25411
10967004,25060
10969004,26411
10971007,26552
10973008,25992
10975009,27657
10977010,27402
10979010,28133
10981013,28906
10983015,28873
10985016,30918
10987016,31056
10989018,31355
10991020,32107
10993023,32310
10995023,33883
10997024,34608
10999028,35185
11001032,36136
11003035,35686
11005037,36765
11007037,36844
11009040,36987
11011040,37049
11013044,35711
11015044,35146
11017044,34128
11019046,33539
11021048,31861
11023050,57439
11025051,63259
11027055,33195
11029057,28010
11031060,27304
11033062,26749
11035065,27103
11037067,26229
11039069,26121
11041072,26179
11043075,25663
11045077,26291
11047077,25497
11049078,25352
11051079,25487
11053080,25460
11055080,26595
11057082,26368
11059083,56480
11061086,63221
11063086,30395
11065088,15709
11067090,3778
11069093,24222
11071097,26582
11073097,25957
11075098,26269
11077102,26113
11079104,26229
11081108,26636
11083109,25840
11085110,26213
11087110,25413
11089113,24843
11091115,24809
11093116,24579
11095116,25019
11097119,24997
11099121,24645
11101122,25186
11103123,24692
11105126,25015
11107128,23941
11109130,22492
11111132,22988
11113133,22800
11115133,23160
11117136,22597
11119140,22278
11121142,22907
11123144,23666
11125145,25126
11127148,26175
11129151,27635
11131154,28157
11133154,27444
11135155,25449
11137156,25533
11139157,24992
11141158,23227
11143161,22203
11145165,21718
11147165,21166
11149166,20282
11151166,20403
11153167,20609
11155169,20416
11157169,20731
11159173,20331
11161175,20981
11163177,20990
11165178,20670
11167181,20947
11169181,20464
11171183,20660
11173184,20695
11175184,20263
11177187,20727
11179191,21101
11181194,21731
11183195,22503
11185195,19912
11187196,18520
11189196,11596
11191197,16158
11193200,19974
11195203,44416
11197205,63406
11199205,63172
11201208,63220
11203210,61572
11205212,45596
11207212,10550
11209215,6080
11211218,4970
11213219,13432
11215220,17122
11217223,20357
11219224,20845
11221225,20629
11223225,20781
11225226,19648
11227228,20251
11229230,20293
11231230,20133
11233232,20659
11235234,20360
11237234,21708
11239236,21770
11241237,21399
11243237,21243
11245237,21608
11247240,22407
11249242,22235
11251244,21937
11253247,22626
11255250,22623
11257251,23356
11259254,24022
11261257,24118
11263259,24957
11265260,24873
11267263,25252
11269263,26197
11271263,25944
11273267,26608
11275271,27146
11277275,27434
11279277,28408
11281278,28412
11283281,29537
11285284,30647
11287288,30995
11289291,31744
11291293,31381
11293295,33125
11295295,33609
11297299,34470
11299301,35734
11301303,35315
11303305,36444
11305305,36665
11307305,36596
11309306,37569
11311307,36138
11313310,36350
11315313,34796
11317314,63162
11319315,63227
11321317,34331
11323317,31199
11325318,30283
11327322,28721
11329323,27892
11331324,26749
11333325,27395
11335327,26559
11337329,26409
11339329,26053
11341332,25632
11343334,26261
11345338,25999
11347338,25462
11349340,25576
11351343,24952
11353344,26179
11355347,26416
11357348,26302
11359349,26366
11361350,25657
11363352,26189
11365355,26320
11367359,26164
11369360,26607
11371361,26107
11373363,26483
11375363,26154
11377365,25886
11379365,26660
11381365,26193
11383368,26189
11385370,26195
11387371,24902
11389371,25062
11391373,24527
11393374,24860
11395377,25183
11397378,24515
11399379,25130
11401380,24958
11403383,24805
11405386,25206
11407390,23275
11409393,22987
11411396,22758
11413399,22855
11415399,23346
11417402,22121
11419404,22780
11421406,22844
11423407,23502
11425407,25416
11427408,25868
11429408,28067
11431409,27943
11433412,27121
11435416,25729
11437419,25210
11439421,25340
11441421,23078
11443421,21610
11445422,21936
11447424,20918
11449425,20481
11451428,20421
11453429,20212
11455431,60762
11457431,63213
11459434,24315
11461437,21098
11463439,20623
11465441,21138
11467445,20679
11469447,20555
11471450,20771
11473452,20264
11475453,20760
11477453,20599
11479453,21146
11481453,21906
11483454,22229
11485455,19663
11487458,18562
11489461,11535
11491463,16725
11493465,19639
11495465,44858
11497465,63250
11499467,63211
11501471,63225
11503472,57597
11505474,45986
11507477,9340
11509479,5686
11511481,4913
11513482,13469
11515484,18608
11517484,20278
11519488,20641
11521490,20891
11523491,20477
11525492,19941
11527493,20241
11529496,19894
11531498,20451
11533500,20437
11535502,20568
11537502,21821
11539502,21333
11541504,21842
11543506,20984
11545507,21856
11547508,22667
11549510,21814
11551513,22478
11553513,22456
11555513,22464
11557515,23801
11559518,23621
11561521,24675
11563522,24954
11565525,24601
11567527,25537
11569530,25945
11571532,26476
11573533,26569
11575533,26742
11577534,27738
11579534,4574
11581536,21848
11583538,29316
11585541,30239
11587544,31544
11589545,31356
11591546,31763
11593547,33424
11595548,33145
11597549,34972
11599549,35521
11601552,35646
11603554,36462
11605556,36100
11607559,37065
11609560,37191
11611560,36338
11613562,36499
11615564,34341
11617567,34241
11619569,33528
11621571,31531
11623572,30867
11625574,29963
11627574,28926
11629577,27374
11631578,27009
11633578,27402
11635581,26153
11637585,26640
11639588,26001
11641591,25908
11643592,26265
11645593,25637
11647596,25696
11649598,25338
11651601,25153
11653602,26363
11655605,26022
11657609,26517
11659609,26159
11661610,25762
11663611,26250
11665611,26083
11667614,26539
11669616,26514
11671616,26013
11673617,26666
11675619,25890
11677622,26262
11679625,26576
11681627,25849
11683628,26390
11685628,25848
11687629,25278
11689633,25008
11691635,24179
11693637,25111
11695640,24930
11697644,24862
11699646,25164
11701646,24569
11703649,25162
11705652,24923
11707653,23265
11709654,22996
11711654,22467
11713655,23139
11715658,23179
11717658,22168
11719658,22902
11721659,22629
11723662,23856
11725662,25619
11727663,25611
11729666,28356
11731666,27622
11733666,27407
11735667,25611
11737669,24967
11739671,25537
11741674,22828
11743676,21977
11745678,21866
11747681,20669
11749682,20616
11751684,20198
11753685,20426
11755686,20804
11757686,20313
11759689,20723
11761692,63299
11763695,63160
11765696,23901
11767699,20451
11769699,20759
11771701,20518
11773702,20489
11775706,20805
11777709,20349
11779713,21561
11781715,21753
11783717,22145
11785720,19651
11787723,18222
11789724,11508
11791728,17877
11793730,19567
11795732,45906
11797732,63119
11799732,63200
11801733,63223
11803737,54815
11805737,44022
11807738,8661
11809741,5615
11811742,4942
11813744,13634
11815744,18822
11817747,20018
11819750,20990
11821753,20810
11823755,20268
11825756,20112
11827756,20058
11829756,20366
11831759,20401
11833760,20176
11835761,20827
11837764,21678
11839767,21619
11841769,21802
11843770,20683
11845774,22297
11847778,22468
11849782,21947
11851783,22536
11853785,22189
11855789,22879
11857790,23658
11859793,23495
11861795,24778
11863796,24592
11865797,25070
11867798,25477
11869799,25724
11871801,26647
11873802,26226
11875806,27227
11877807,27730
11879809,27725
11881810,29346
11883811,29420
11885811,30636
11887812,31604
11889814,31327
11891815,32040
11893816,33318
11895818,32495
11897821,4550
11899823,28274
11901823,35828
11903826,36264
11905827,36380
11907829,37232
11909831,36826
11911831,36631
11913833,36089
11915833,34499
11917833,34163
11919836,33004
11921837,31728
11923838,30655
11925840,29793
11927841,28897
11929843,27141
11931846,27275
11933848,27231
11935850,26285
11937852,26574
11939854,25742
11941854,26181
11943854,26110
11945854,25668
11947856,25680
11949857,25159
11951857,25361
11953858,26382
11955858,26012
11957858,26634
11959860,26101
11961862,25924
11963863,26269
11965863,25939
11967865,26586
11969866,26428
11971868,26129
11973872,26616
11975876,25692
11977876,26442
11979879,26488
11981882,26024
11983884,26337
11985885,25673
11987886,25517
11989887,24837
11991889,24287
11993891,25217
11995891,24731
11997893,24928
11999893,25166
12001894,24536
12003895,25365
12005895,24949
12007897,23103
12009899,22899
12011900,22464
12013902,23265
12015903,23148
12017907,22183
12019907,22981
12021909,22696
12023911,23929
12025912,25862
12027915,25968
12029915,28414
12031915,27512
12033917,35551
12035920,63172
12037922,36671
12039922,25690
12041924,22719
12043925,21983
12045927,21774
12047930,20635
12049932,20534
12051934,20261
12053935,20591
12055936,20807
12057938,20270
12059940,20728
12061943,20880
12063945,20836
12065946,21162
12067948,20477
12069949,20704
12071950,20711
12073953,20321
12075956,20811
12077958,20435
12079958,21497
12081962,21904
12083965,22020
12085968,19195
12087968,17289
12089970,11361
12091973,18497
12093973,23338
12095973,45921
12097976,63244
12099979,63223
12101980,63125
12103981,52132
12105981,40277
12107984,8433
12109986,5401
12111989,6157
12113991,13588
12115991,19266
12117994,20249
12119996,20871
12121999,20830
12124001,20126
12126002,20085
12128005,20198
12130009,20157
12132010,20451
12134014,20244
12136015,20977
12138018,21722
12140020,21433
12142022,21691
12144023,20815
12146027,22309
12148030,22470
12150033,21751
12152034,22564
12154034,22376
12156037,22799
12158037,23817
12160039,23448
12162042,24734
12164044,24869
12166046,24870
12168046,25603
12170048,25850
12172052,26586
12174053,26463
12176054,27004
12178057,27955
12180057,27869
12182060,29280
12184063,29965
12186064,30375
12188067,31705
12190067,31254
12192068,31906
12194070,33583
12196073,33382
12198075,35024
12200079,35405
12202079,35882
12204082,36404
12206082,36316
12208084,37157
12210084,36986
12212085,36295
12214089,35985
12216092,34346
12218093,34116
12220095,32708
12222098,31564
12224099,30646
12226101,29701
12228101,29067
12230105,27194
12232106,45616
12234107,63252
12236109,34537
12238110,26926
12240110,25849
12242111,26147
12244112,26165
12246115,25620
12248118,25653
12250118,25215
12252118,25302
12254118,26510
12256121,25980
12258122,26626
12260123,26097
12262126,25858
12264128,26267
12266128,25970
12268129,26578
12270131,26444
12272134,26120
12274137,26540
12276137,25702
12278140,26487
12280142,26508
12282145,26061
12284148,26303
12286148,25591
12288152,25412
12290153,24813
12292156,24313
12294159,25195
12296161,24829
12298162,24987
12300165,25112
12302165,24573
12304167,25238
12306169,24910
12308173,22987
12310176,22971
12312178,22204
12314178,23261
12316178,23036
12318181,22270
12320182,22916
12322183,22926
12324185,23989
12326185,25882
12328186,25974
12330190,28412
12332191,27404
12334193,27103
12336196,25509
12338197,24984
12340200,24857
12342201,22726
12344205,21882
12346207,21628
12348210,20641
12350210,20571
12352210,20363
12354213,20559
12356214,20757
12358215,20317
12360215,20729
12362216,20955
12364217,20491
12366218,21168
12368221,20425
12370223,20716
12372223,20771
12374225,20249
12376227,20775
12378227,20399
12380231,21445
12382235,22053
12384236,21903
12386238,19093
12388238,16012
12390240,11245
12392242,19039
12394243,28469
12396244,45923
12398248,63333
12400248,63245
12402250,63199
12404254,50118
12406254,34088
12408256,8119
12410256,5269
12412257,7830
12414258,13612
12416261,19583
12418263,20487
12420265,20740
12422266,20842
12424266,20205
12426266,19964
12428270,20303
12430272,19877
12432276,20460
12434276,20483
12436277,21008
12438280,21844
12440281,21369
12442284,21555
12444286,20996
12446288,22031
12448288,22513
12450291,21800
12452292,22518
12454292,22615
12456292,22394
12458294,23969
12460296,23970
12462297,24561
12464297,25090
12466297,24665
12468298,25519
12470300,26223
12472301,26145
12474301,26642
12476305,27022
12478307,28011
12480308,28282
12482310,29020
12484314,30348
12486318,30351
12488321,31569
12490323,55055
12492324,63152
12494328,39535
12496328,33704
12498328,34984
12500331,35742
12502334,35615
12504335,36476
12506336,36389
12508337,37084
12510338,37386
12512341,35918
12514341,35900
12516342,34440
12518346,33901
12520346,32721
12522349,31142
12524350,30870
12526351,29515
12528353,28746
12530355,27414
12532356,26824
12534359,27407
12536361,26274
12538364,26335
12540366,26168
12542367,25691
12544369,26325
12546371,25905
12548373,25435
12550375,25515
12552376,24948
12554380,26534
12556383,26337
12558386,26359
12560387,26278
12562387,54668
12564389,63216
12566391,31965
12568395,26553
12570398,26608
12572400,26013
12574402,26444
12576404,26019
12578407,26255
12580409,26616
12582411,25988
12584412,26309
12586416,25599
12588419,25283
12590420,24865
12592420,24399
12594424,25179
12596426,24905
12598430,24843
12600431,25172
12602431,24627
12604432,25111
12606434,25026
12608435,22747
12610437,22967
12612438,22497
12614440,23328
12616440,22799
12618442,22116
12620443,22946
12622443,23031
12624443,23813
12626445,25972
12628446,26395
12630447,28485
12632450,27568
12634451,26525
12636455,25592
12638458,24941
12640458,24371
12642459,22769
12644459,21661
12646462,21535
12648463,20728
12650464,20399
12652468,20447
12654468,20310
12656470,20791
12658471,20471
12660473,20679
12662473,21010
12664473,20653
12666473,21160
12668475,20560
12670476,20552
12672477,20748
12674478,20233
12676478,20749
12678479,20589
12680483,21533
12682485,22216
12684489,22071
12686490,18913
12688490,14702
12690491,11188
12692493,19367
12694497,33322
12696499,46079
12698501,63044
12700504,63153
12702506,63145
12704506,48571
12706508,28759
12708511,7899
12710513,5162
12712516,9485
12714517,13760
12716518,19809
12718520,20656
12720521,20695
12722523,20835
12724524,20083
12726526,19956
12728529,20344
12730529,19888
12732529,20407
12734532,20502
12736532,21181
12738536,21878
12740536,21377
12742539,21494
12744540,21016
12746541,22057
12748542,22470
12750544,21862
12758817,23885
12760818,23937
12762821,24774
12764825,24738
12766827,25246
12768829,25455
12770830,25928
12772830,26416
12774833,26257
12776834,27406
12778834,28216
12780837,27789
12782841,29522
12784842,30211
12786845,30532
12788849,31706
12790852,31260
12792854,32069
12794858,33477
12796858,34089
12798858,35044
12800858,35309
12802860,36249
12804861,36125
12806865,36534
12808866,37488
12810869,36806
12812871,36442
12814872,35142
12816875,34412
12818878,33991
12820878,31810
12822878,31686
12824879,30564
12826881,28915
12828884,28879
12830887,26840
12832887,27297
12834891,27205
12836893,4459
12838893,20410
12840893,25636
12842893,26061
12844895,26175
12846895,25611
12848898,25573
12850899,25223
12852899,25242
12854900,26612
12856903,26028
12858906,26634
12860908,26101
12862910,25917
12864911,26311
12866913,26027
12868916,9746
12870919,3605
12872922,25214
12874923,26365
12876926,25700
12878927,26545
12880928,26498
12882929,25989
12884930,26291
12886933,25334
12888934,25292
12890934,24771
12892936,24483
12894936,25155
12896938,24825
12898942,24933
12900945,25129
12902947,24599
12904948,25158
12906949,24910
12908949,22800
12910949,22960
12912952,22436
12914954,23283
12916958,22562
12918959,22286
12920961,22977
12922963,23157
12924965,24028
12926969,26013
12928970,27197
12930971,28490
12932971,27349
12934974,26062
12936977,25447
12938979,24996
12940981,23690
12942981,22595
12944981,21826
12946985,21239
12948986,20612
12950987,20462
12952990,20415
12954991,20643
12956992,20745
12958992,20243
12960993,20784
12962993,20924
12964993,20816
12966993,21710
12968993,63175
12970995,37966
12972995,21054
12974995,20487
12976995,20809
12978995,20395
12980996,21746
12982999,22340
12984999,21984
12987002,18766
12989005,12709
12991007,11636
12993009,19714
12995010,40062
12997010,46664
12999012,63191
13001013,63331
13003014,63095
13005014,46671
13007017,17846
13009019,7558
13011022,5047
13013024,11884
13015025,13817
13017025,20198
13019028,20693
13021032,20990
13023033,20805
13025034,19739
13027035,20080
13029038,20241
13031039,20201
13033040,20429
13035043,20287
13037045,21538
13039046,21766
13041049,21513
13043050,21310
13045050,20735
13047050,22434
13049053,22207
13051054,21770
13053056,22595
13055058,22493
13057058,22800
13059060,24015
13061063,24050
13063065,24797
13065067,24893
13067068,25146
13069068,25659
13071072,25956
13073075,26610
13075075,26450
13077075,27199
13079078,28292
13081081,27854
13083084,29005
13085086,29384
13087089,30345
13089089,31469
13091092,31162
13093094,31922
13095095,33141
13097097,33243
13099099,35044
13101100,16144
13103103,3774
13105105,34184
13107105,36151
13109105,37213
13111105,37124
13113107,36545
13115107,36496
13117107,34345
13119108,34421
13121110,33466
13123110,31556
13125111,31024
13127114,29962
13129115,28952
13131117,27562
13133118,27056
13135120,27366
13137120,26231
13139123,26624
13141126,26026
13143127,25901
13145129,26315
13147131,25678
13149134,25804
13151137,25368
13153139,25089
13155141,26217
13157144,26079
13159144,26423
13161146,26221
13163147,25708
13165148,26291
13167152,26046
13169154,26480
13171156,26530
13173159,26021
13175160,26676
13177162,25885
13179165,26357
13181168,26538
13183168,25974
13185169,26442
13187171,25935
13189172,25363
13191174,25016
13193176,24222
13195178,25110
13197181,24879
13199183,24889
13201183,25242
13203186,24577
13205186,25098
13207187,24989
13209191,23514
13211194,23027
13213198,22407
13215200,23171
13217202,23185
13219204,22381
13221207,22840
13223209,22462
13225209,23907
13227211,25338
13229213,25690
13231215,28366
13233216,27291
13235217,27560
13237219,25576
13239221,24937
13241223,25573
13243223,22781
13245225,22167
13247229,21834
13249233,20664
13251234,20715
13253234,20242
13255234,20505
13257234,20771
13259236,20270
13261238,20785
13263239,20863
13265240,20833
13267240,21144
13269243,20489
13271245,20719
13273245,20699
13275246,20310
13277250,20808
13279254,20390
13281255,21432
13283255,21835
13285259,22000
13287261,20138
13289263,18379
13291267,11617
13293268,16827
13295269,19480
13297270,45025
13299270,63247
13301271,63215
13303275,62922
13305278,58532
13307279,46338
13309279,9211
13311282,5942
13313285,4946
13315286,13273
13317289,18006
13319292,20125
13321295,20887
13323296,20874
13325296,20295
13327296,20102
13329300,20223
13331303,20148
13333304,20425
13335304,20177
13337307,20725
13339308,21728
13341308,21394
13343308,21929
13345308,20857
13347309,21999
13349310,22563
13351311,21700
13353314,22469
13355314,22369
13357314,22512
13359317,23823
13361318,23558
13363319,24685
13365320,24912
13367324,24608
13369328,25566
13371330,25800
13373331,26448
13375333,26534
13377337,26834
13379339,27777
13381342,27895
13383343,29095
13385344,29501
13387347,30296
13389347,31578
13391349,31315
13393349,31791
13395349,33452
13397350,33167
13399353,34985
13401356,35508
13403356,35626
13405357,36504
13407359,36169
13409362,37171
13411364,37153
13413365,36358
13415367,36253
13417370,34327
13419372,34268
13421375,33567
13423377,31483
13425379,30904
13427381,29983
13429383,28899
13431383,27409
13433387,27127
13435390,27377
13437392,26197
13439394,26626
13441396,26035
13443396,25902
13445396,26282
13447397,25689
13449400,25671
13451403,25363
13453405,24985
13455406,26386
13457409,26070
13459411,26555
13461414,26222
13463416,25665
13465417,26303
13467418,26157
13469420,26420
13471421,26578
13473423,25959
13475425,26629
13477425,25924
13479426,26173
13481426,26626
13483426,25994
13485430,26323
13487431,26033
13489433,25122
13491433,24984
13493433,24233
13495433,25098
13497436,24977
13499438,25408
13501441,63168
13503443,63191
13505445,63194
13507448,27258
13509448,23501
13511451,22953
13513453,22411
13515453,23253
13517457,23096
13519458,22381
13521461,22896
13523461,22400
13525461,23972
13527461,25661
13529464,25682
13531466,28412
13533467,27504
13535467,27606
13537470,25584
13539470,24969
13541470,25530
13543474,22718
13545477,22064
13547477,21850
13549478,20611
13551480,20607
13553480,20221
13555480,20525
13557480,20768
13559481,20353
13561484,20775
13563485,20936
13565486,20707
13567488,20957
13569490,20661
13571491,20669
13573493,20736
13575496,20250
13577499,20811
13579503,20474
13581506,21434
13583508,21818
13585511,22008
13587515,19680
13589518,18412
13591522,11500
13593524,17863
13595525,19510
13597528,45644
13599528,63191
13601529,63203
13603533,63171
13605533,55221
13607534,44381
13609535,8767
13611536,5629
13613539,4903
13615542,13439
13617545,18700
13619549,20209
13621552,20896
13623554,20817
13625556,20249
13627560,20100
13629563,20176
13631567,20156
13633568,20427
13635570,20265
13637573,20755
13639576,21737
13641579,21562
13643582,21807
13645582,20813
13647584,22211
13649586,22468
13651588,21752
13653590,22279
13655593,22225
13657597,22826
13659597,23713
13661597,23472
13663598,24714
13665601,24777
13667603,24886
13669604,25516
13671605,25772
13673605,26572
13675605,26452
13677606,26990
13679606,27819
13681608,27849
13683610,29216
13685611,29586
13687611,30332
13689611,31575
13691613,31303
13693615,31865
13695615,33518
13697617,33183
13699618,35052
13701619,35395
13703620,35792
13705621,36444
13707622,36291
13709623,37190
13711626,37135
13713627,36167
13715628,36310
13717631,34329
13719634,63207
13721638,63304
13723641,33424
13725642,30734
13727645,30103
13729645,28932
13731646,27250
13733647,27243
13735648,27295
13737650,26154
13739653,26651
13741655,25853
13743656,26058
13745656,26205
13747656,25637
13749657,25697
13751659,25244
13753661,25252
13755662,26418
13757665,26000
13759669,26600
13761673,26069
13763676,25970
13765680,26262
13767681,25875
13769681,26622
13771681,26319
13773683,26285
13775683,34662
13777686,63205
13779687,19133
13781690,7289
13783692,25679
13785692,26349
13787695,25495
13789696,25539
13791696,24783
13793698,24411
13795700,25212
13797700,24664
13799702,25084
13801704,25051
13803708,24629
13805708,25179
13807711,24709
13809712,23294
13811713,22903
13813717,22462
13815720,23285
13817721,22850
13819721,22486
13821722,22890
13823722,22573
13825722,24019
13827723,8197
13829726,4219
13831729,27624
13833731,27318
13835732,27574
13837732,25431
13839735,25009
13841737,25327
13843737,22650
13845738,21995
13847738,21714
13849740,20646
13851742,20573
13853743,20178
13855744,20607
13857744,20723
13859745,20277
13861745,20744
13863745,20982
13865747,20828
13867748,21128
13869750,20391
13871751,20723
13873753,20639
13875753,20209
13877755,20811
13879755,20411
13881758,21524
13883760,22028
13885762,22004
13887763,19362
13889763,17272
13891764,11345
13893767,18596
13895769,23386
13897773,45973
13899777,63122
13901780,63217
13903782,63237
13905785,51993
13907788,41801
13909790,8473
13911793,5414
13913795,6182
13915796,13704
13917796,19369
13919796,20186
13921798,20926
13923798,20803
13925798,20138
13927800,20083
13929804,20156
13931806,20188
13933806,20455
13935808,20233
13937811,21019
13939814,21730
13941816,21471
13943816,21887
13945817,20852
13947820,22204
13949823,22465
13951826,21797
13953827,22606
13955828,22322
13957831,22795
13959831,23888
13961835,23595
13963838,24733
13965841,24777
13967841,24991
13969842,25558
13971845,25768
13973846,26600
13975848,26383
13977850,27227
13979853,27956
13981855,27765
13983858,29366
13985861,29455
13987861,30447
13989861,31660
13991861,31229
13993864,31929
13995867,33431
13997868,33446
13999870,35064
14001871,35228
14003872,36044
14005872,36322
14007875,36399
14009876,37333
14011877,36841
14013879,36487
14015880,35938
14017883,34415
14019886,34118
14021888,32943
14023890,31760
14025891,30660
14027895,29681
14029899,28896
14031903,27038
14033905,27317
14035907,27229
14037911,26260
14039915,26485
14041919,25785
14043921,26178
14045924,26107
14047925,25664
14049925,25647
14051925,25090
14053928,25392
14055929,26426
14057932,26021
14059935,26631
14061936,25969
14063936,26036
14065937,26210
14067941,25943
14069941,26604
14071942,26390
14073942,26161
14075945,26530
14077946,25659
14079948,26555
14081948,26429
14083948,26129
14085948,26313
14087952,25423
14089955,25465
14091958,24725
14093958,24436
14095962,25204
14097964,24710
14099964,25006
14101966,25092
14103967,24578
14105967,25168
14107969,24858
14109969,23087
14111973,22898
14113974,22394
14115975,23285
14117979,22883
14119981,22345
14121983,22910
14123987,22614
14125991,24024
14127992,25683
14129996,26218
14131998,28352
14134000,27229
14136001,27169
14138004,25421
14140005,25042
14142006,24853
14144010,22538
14146013,21979
14148016,21535
14150016,20723
14152016,20529
14154018,20213
14156019,20668
14158021,20723
14160025,20267
14162028,20796
14164029,20799
14166030,21009
14168032,21116
14170035,20333
14172037,20772
14174038,20547
14176038,20517
14178041,20784
14180042,20317
14182044,21720
14184046,22010
14186047,22113
14188051,19109
14190054,15702
14192054,11365
14194055,19037
14196056,28973
14198059,46472
14200062,63191
14202065,63195
14204069,63151
14206072,49765
14208076,34756
14210079,8091
14212080,5254
14214080,8084
14216081,13880
14218082,19673
14220085,20196
14222087,21062
14224088,20715
14226088,20046
14228090,20108
14230091,20072
14232094,20301
14234094,20391
14236097,20250
14238099,21076
14240103,21602
14242107,21706
14244107,21630
14246107,20625
14248110,22466
14250114,22224
14252116,22047
14254118,22544
14256119,22216
14258123,22967
14260125,23754
14262129,24017
14264131,24779
14266131,24575
14268131,25236
14270132,25439
14272133,25921
14274137,26685
14276140,26130
14278142,27511
14280144,27987
14282145,27808
14284148,29441
14286151,29661
14288151,30798
14290154,31611
14292158,54863
14294159,63630
14296160,38934
14298161,34194
14300163,35032
14302164,6561
14304168,18843
14306171,35605
14308174,37100
14310175,37375
14312179,36749
14314181,36622
14316181,35381
14318181,34569
14320183,34028
14322185,57237
14324187,63187
14326189,35794
14328189,29894
14330192,28794
14332195,26970
14334197,27395
14336197,27024
14338200,26520
14340202,26412
14342204,25516
14344205,26159
14346206,25923
14348207,25985
14350210,25554
14352213,24921
14354213,25539
14356215,26247
14358217,26260
14360217,26639
14362219,25694
14364221,26196
14366222,26093
14368226,26121
14370229,26576
14372233,26027
14374234,26604
14376235,26289
14378238,25752
14380242,26646
14382246,26139
14384247,26543
14386249,26153
14388249,25286
14390250,25555
14392252,24455
14394255,24827
14396258,25074
14398259,24561
14400259,25169
14402262,24812
14404264,24981
14406266,25116
14408266,24705
14410266,23173
14412270,22702
14414272,22798
14416273,23272
14418274,22506
14420277,22606
14422280,22695
14424281,23161
14426282,24103
14428282,63157
14430285,58443
14432286,29012
14434288,27530
14436292,26668
14438293,25115
14440294,25517
14442295,23973
14444296,22766
14446298,22007
14448302,20950
14450305,21153
14452308,20342
14454310,20261
14456312,20781
14458314,20338
14460316,20751
14462320,20637
14464321,20755
14466321,21153
14468321,20819
14470321,20745
14472321,20723
14474324,20253
14476325,20785
14478325,20587
14480328,20567
14482330,63230
14484330,53110
14486332,23509
14488333,18718
14490336,15406
14492339,11368
14494342,18715
14496343,32137
14498346,46558
14500346,63196
14502350,63587
14504352,63191
14506353,49401
14508355,25928
14510356,7893
14512356,5119
14514359,9852
14516363,14085
14518365,19769
14520368,20726
14522371,21122
14524373,20286
14526374,20431
14528375,19943
14530378,20011
14532378,20475
14534379,20035
14536381,20703
14538384,21262
14540387,21411
14542388,21876
14544391,21154
14546391,21036
14548392,22444
14550396,21842
14552396,22275
14554398,4730
14556401,14672
14558404,22774
14560408,23423
14562410,24473
14564411,24631
14566414,24687
14568416,25462
14570417,25022
14572417,26466
14574421,26546
14576422,26041
14578422,27680
14580422,27698
14582422,28222
14584424,29455
14586428,29641
14588429,31002
14590429,31368
14592432,31508
14594435,32093
14596436,33153
14598437,34504
14600440,34734
14602441,35480
14604442,36364
14606443,35776
14608443,37107
14610445,37241
14612448,36977
14614449,36627
14616450,35100
14618453,35013
14620454,33809
14622455,32134
14624458,31796
14626460,30155
14628463,29539
14630466,28617
14632469,27074
14634473,27385
14636475,26781
14638475,26630
14640478,26341
14642480,25867
14644481,26277
14646482,25717
14648482,26161
14650485,25256
14652489,25034
14654490,25569
14656492,63139
14658494,49491
14660497,27086
14662501,25845
14664502,26294
14666503,25692
14668503,26306
14670503,26518
14672505,26001
14674507,26678
14676509,26006
14678509,26020
14680511,26586
14682514,25989
14684516,26636
14686517,26026
14688519,25501
14690521,25539
14692522,24282
14694523,60520
14696524,63385
14698528,28884
14700531,25238
14702531,24554
14704533,25160
14706535,24859
14708538,24904
14710542,23116
14712545,22388
14714545,22952
14716549,23071
14718549,22627
14720551,22657
14722553,22412
14724553,23582
14726554,23878
14728557,25619
14730559,27634
14732563,27894
14734563,27676
14736563,26233
14738563,24956
14740564,25583
14742566,23494
14744566,22760
14746569,21943
14748569,59221
14750569,63259
14752571,24515
14754572,20660
14756573,20743
14758573,20256
14760573,20807
14762576,20530
14764579,20906
14766582,21140
14768583,20595
14770583,20765
14772586,20607
14774589,20454
14776590,20788
14778593,20344
14780595,20792
14782596,21710
14784598,21835
14786599,22560
14788599,18638
14790600,14208
14792602,11267
14794603,18980
14796606,35545
14798607,46591
14800607,63151
14802609,63219
14804612,63155
14806614,48598
14808616,20317
14810620,7722
14812623,3760
14814626,9350
14816644,14060
14818644,19588
14820646,20737
14822647,21042
14824649,20327
14826751,19884
14828754,20008
14830754,20286
14832757,20012
14834759,20410
14836763,20417
14838766,21433
14840766,21822
14842767,21351
14844769,21387
14846771,20887
14848774,22289
14850778,22341
14852781,21717
14854784,22596
14856788,22630
14858791,22689
14860795,24050
14862796,24010
14864798,24767
14866802,24983
14868804,24963
14870806,25573
14872807,25988
14874809,26549
14876812,26464
14878815,27134
14880817,28304
14882818,28021
14884820,29338
14886820,30604
14888823,30329
14890827,31738
14892829,31472
14894831,31927
14896833,33815
14898836,34068
14900837,35073
14902838,35712
14904842,36085
14906842,36470
14908845,36277
14910847,37484
14912850,37180
14914851,36237
14916853,35358
14918856,34299
14920859,33979
14922859,31820
14924859,31252
14926861,30564
14928862,28597
14930864,28750
14932866,27107
14934867,27109
14936867,27303
14938870,26020
14940872,26406
14942875,25953
14944877,25848
14946881,26289
14948881,25652
14950884,25574
14952887,25397
14954889,25050
14956890,26629
14958893,26097
14960896,26490
14962898,26187
14964898,25668
14966898,26349
14968898,25984
14970900,26462
14972902,26610
14974903,26025
14976903,26369
14978904,26012
14980905,26259
14982905,26642
14984905,26053
14986907,26186
14988909,25571
14990912,25132
14992914,24826
14994914,24621
14996916,24939
14998917,25095
15000918,24575
15002918,25218
15004919,24857
15006923,24880
15008923,25117
15010925,22513
15012926,22965
15014928,22772
15016930,4248
15018932,17792
15020933,21961
15022934,22883
15024934,23685
15026934,23588
15028935,26211
15030937,27518
15032938,28212
15034938,27735
15036942,25427
15038945,25597
15040947,25171
15042947,23345
15044949,22922
15046951,21393
15048952,21355
15050953,20864
15052953,20269
15054957,20773
15056957,20252
15058960,20755
15060963,20579
15062965,20498
15064965,21117
15066968,20648
15068971,21102
15070973,20639
15072974,20445
15074974,20787
15076974,20395
15078975,20688
15080977,20860
15082977,21374
15084977,22416
15086978,22376
15088982,18657
15090983,13000
15092985,11060
15094988,19743
15096990,40131
15098994,49511
15100995,63321
15102996,63205
15104997,63263
15107001,46914
15109004,15144
15111007,7207
15113010,5045
15115014,12061
15117015,14604
15119016,20078
15121018,20948
15123020,20586
15125022,20790
15127025,20029
15129025,19759
15131028,20443
15133028,19930
15135028,20396
15137028,20665
15139032,21366
15141033,21906
15143033,21539
15145034,21153
15147037,21229
15149040,21998
15151040,22294
15153042,21958
15155045,22376
15157049,22840
15159052,22578
15161055,24050
15163055,24412
15165057,24519
15167057,25150
15169057,24829
15171060,25545
15173061,26418
15175064,26106
15177065,26757
15179065,27129
15181065,28135
15183067,28457
15185069,28893
15187072,30773
15189072,30610
15191075,30762
15193077,31652
15195079,31248
15197081,32071
15199084,33287
15201085,34162
15203089,34804
15205091,35246
15207092,36334
15209093,36104
15211094,36652
15213097,37444
15215098,36859
15217102,36593
15219106,35088
15221106,34726
15223109,33938
15225112,31866
15227115,31788
15229117,30356
15231118,29316
15233122,28801
15235124,26844
15237124,27468
15239126,27084
15241130,26424
15243131,26380
15245133,25640
15247134,26253
15249135,26015
15251135,25808
15253137,25615
15255140,24933
15257141,25472
15259142,26463
15261144,26070
15263148,26630
15265149,25704
15267151,26177
15269151,26169
15271151,26016
15273154,26680
15275155,26169
15277156,26458
15279159,26359
15281162,25674
15283163,26651
15285164,26241
15287164,26414
15289165,26262
15291165,25125
15293168,25507
15295170,24595
15297173,24703
15299176,25107
15301179,24554
15303181,25184
15305181,24982
15307183,24746
15309184,25192
15311184,24609
15313185,23063
15315187,22818
15317191,22536
15319192,23345
15321193,22371
15323194,22524
15325194,22906
15327197,23163
15329198,24115
15331198,25817
15333201,27508
15335204,28414
15337206,27164
15339206,26416
15341206,25242
15343207,25259
15345209,23909
15347211,22408
15349211,21989
15351215,21190
15353216,20875
15355220,20461
15357222,20176
15359223,20744
15361225,20625
15363227,20421
15365229,20791
15367232,20689
15369235,21064
15371238,21056
15373239,20261
15375240,20803
15377240,20419
15379243,20723
15381246,20687
15383249,20286
15385251,21851
15387252,22043
15389256,22399
15391259,4433
15393262,8634
15395265,11154
15397269,19422
15399272,37779
15401274,46902
15403277,63231
15405279,63223
15407283,63203
15409284,47442
15411286,20012
15413286,7682
15415288,5075
15417291,10976
15419295,14070
15421297,20057
15423300,20363
15425300,21139
15427301,20560
15429302,20032
15431302,20043
15433302,19937
15435303,20392
15437307,20311
15439310,20455
15441311,21628
15443311,21535
15445312,21758
15447315,21222
15449319,20611
15451321,22532
15453322,22137
15455322,22092
15457323,22575
15459326,22288
15461328,22887
15463332,23799
15465332,24230
15467334,24778
15469336,24580
15471337,25382
15473338,25425
15475338,25998
15477341,26660
15479343,26117
15481344,27620
15483346,28120
15485347,27809
15487347,29553
15489351,30339
15491354,30834
15493358,31646
15495360,31292
15497363,32087
15499363,33423
15501364,34364
15503366,34998
15505366,35346
15507367,36385
15509369,36133
15511372,36681
15513372,37449
15515373,36785
15517374,36546
15519376,35006
15521378,34632
15523379,33940
15525380,31534
15527382,31754
15529385,30305
15531386,29084
15533387,28855
15535388,26765
15537388,27151
15539391,27103
15541391,26388
15543394,26353
15545397,25617
15547397,26277
15549400,8728
15551403,4287
15553404,24813
15555405,24918
15557405,25541
15559409,26440
15561410,26045
15563410,26650
15565412,25873
15567412,26109
15569412,26193
15571412,25960
15573414,26682
15575417,26194
15577420,26481
15579423,26268
15581424,25720
15583427,26803
15585427,26289
15587427,25274
15589429,4271
15591430,20235
15593430,25556
15595434,24624
15597436,24689
15599439,25192
15601440,24596
15603443,25091
15605446,24991
15607447,24802
15609451,25142
15611454,24568
15613455,23023
15615458,22742
15617461,22654
15619461,23309
15621463,22257
15623466,22592
15625468,22802
15627469,23292
15629471,24065
15631473,25627
15633475,27716
15635477,28329
15637477,27153
15639480,25978
15641483,25143
15643484,25469
15645485,23560
15647489,22472
15649492,21965
15651494,20982
15653494,20993
15655496,20410
15657500,20205
15659503,20779
15661505,20439
15663505,20651
15665506,20779
15667509,4181
15669510,16477
15671510,20835
15673512,20537
15675512,20787
15677514,20295
15679516,20763
15681518,20616
15683519,20457
15685523,21878
15687523,21956
15689526,22336
15691529,18596
15693532,12611
15695534,12133
15697536,19441
15699539,40722
15701542,48240
15703542,63135
15705543,63263
15707544,63197
15709547,47092
15711549,16603
15713549,7448
15715550,4995
15717554,11800
15719555,14578
15721556,20044
15723556,20597
15725556,21145
15727559,20411
15729562,20118
15731564,19748
15733568,20064
15735571,20427
15737573,20063
15739577,20715
15741580,21551
15743582,21363
15745585,21895
15747585,20996
15749587,21060
15751588,22484
15753589,21736
15755593,22264
15757593,22316
15759595,22670
15761598,23015
15763600,23471
15765602,24630
15767602,24598
15769602,24745
15771604,25535
15773605,25155
15775607,26522
15777609,26464
15779610,26113
15781613,27735
15783613,27755
15785613,28329
15787613,29452
15789615,30019
15791617,31143
15793618,31294
15795618,31762
15797621,32224
15799623,33123
15801624,34838
15803625,34728
15805626,35741
15807626,63179
15809630,63212
15811633,38742
15813635,36884
15815637,37415
15817638,36378
15819640,34730
15821642,34973
15823642,33350
15825643,32083
15827645,31476
15829649,30157
15831651,29194
15833655,27976
15835658,27393
15837659,27185
15839662,26786
15841665,26672
15843666,25722
15845667,26249
15847670,26095
15849673,25764
15851676,26111
15853679,25012
15855683,25512
15857687,25486
15859691,26087
15861692,26604
15863694,25978
15865698,26109
15867699,26137
15869701,36075
15871701,63250
15873702,36275
15875702,26963
15877705,26486
15879705,25800
15881708,26414
15883709,26139
15885710,26520
15887712,26514
15889713,25663
15891714,25716
15893716,25011
15895719,24673
15897719,25055
15899721,24535
15901724,25154
15903725,6793
15905727,8382
15907729,24648
15909729,24535
15911732,25023
15913734,22842
15915734,22678
15917735,23019
15919737,22819
15921738,22711
15923738,22509
15925738,22508
15927742,23861
15929743,23968
15931744,26045
15933744,28062
15935747,27662
15937750,27795
15939750,63249
15941752,63168
15943752,27142
15945752,23057
15947755,22928
15949757,21614
15951758,21186
15953758,20985
15955760,19948
15957763,20729
15959764,20543
15961764,20567
15963764,20797
15965764,20347
15967767,21126
15969768,20945
15971771,20706
15973775,20805
15975778,20315
15977779,20728
15979780,20672
15981781,20363
15983781,21030
15985783,21523
15987783,22284
15989787,22055
15991788,18266
15993789,12602
15995790,12389
15997790,19605
15999792,41983
16001794,54311
16003797,63201
16005800,63165
16007803,63223
16009807,47044
16011807,13094
16013808,7273
16015810,4985
16017811,12349
16019813,14853
16021817,19735
16023819,21020
16025820,20904
16027821,20560
16029822,20209
16031826,19621
16033828,20355
16035830,20293
16037834,20125
16039836,20797
16041836,21326
16043837,21768
16045837,21777
16047837,20733
16049840,21537
16051841,22341
16053842,22113
16055842,22357
16057842,22064
16059844,22912
16061847,23167
16063849,23743
16065850,24674
16067854,24296
16069856,25118
16071860,25316
16073863,25306
16075865,26652
16077865,26121
16079868,26844
16081871,27552
16083873,27720
16085874,28780
16087875,29070
16089878,30626
16091880,31159
16093881,31025
16095885,32091
16097889,31965
16099892,33664
16101896,34872
16103897,34660
16105898,36151
16107898,35903
16109901,36310
16111904,37130
16113905,36763
16115908,37327
16117912,36038
16119914,34985
16121916,34710
16123917,33182
16125918,32070
16127918,30951
16129919,30318
16131919,29059
16133920,27671
16135921,27454
16137921,27129
16139923,26912
16141924,26635
16143926,25680
16145927,26173
16147930,26047
16149930,25727
16151930,26083
16153934,25043
16155934,25441
16157936,25733
16159936,25986
16161937,26666
16163940,26046
16165941,26090
16167941,26226
16169943,25766
16171945,26627
16173946,26339
16175947,47913
16177950,63187
16179952,32956
16181955,26578
16183957,26313
16185958,26369
16187960,26482
16189962,25634
16191966,25647
16193968,24931
16195970,24585
16197971,25102
16199973,24533
16201976,25136
16203977,24981
16205978,24762
16207978,25191
16209979,24451
16211980,24575
16213982,22859
16215982,22460
16217982,23039
16219985,22928
16221985,22589
16223988,22667
16225988,22414
16227988,23930
16229992,24474
16231994,25982
16233996,28167
16235997,27543
16237999,27755
16240000,25487
16242001,25194
16244003,25554
16246005,63199
16248008,62686
16250011,22824
16252015,21198
16254015,20877
16256016,19972
16258017,20784
16260020,20533
16262022,20546
16264023,20763
16266024,20406
16268028,21128
16270031,20926
16272033,20741
16274034,20784
16276035,20390
16278037,20733
16280039,20675
16282041,20370
16284042,21105
16286044,21537
16288044,22376
16290047,21250
16292049,18249
16294049,12132
16296053,14072
16298054,19735
16300056,43713
16302056,58546
16304059,63301
16306059,63144
16308059,63178
16310063,46743
16312067,11830
16314069,6779
16316072,4916
16318074,12856
16320077,16075
16322079,19813
16324079,21044
16326083,20723
16328084,20586
16330087,20122
16332091,19657
16334094,20430
16336096,20227
16338099,20386
16340101,20719
16342101,21270
16344102,21884
16346102,21730
16348105,20868
16350106,21780
16352106,22191
16354108,22241
16356110,22276
16358113,22117
16360115,22928
16362115,22951
16364118,23930
16366120,24609
16368120,24315
16370122,25163
16372123,25168
16374124,25714
16376128,26626
16378129,25994
16380130,27097
16382134,27480
16384137,28098
16386137,29016
16388139,28915
16390140,30938
16392144,31136
16394145,31215
16396147,32070
16398149,32002
16400151,33831
16402154,34668
16404157,34942
16406160,36103
16408162,35682
16410163,36814
16412163,36965
16414166,36931
16416170,37014
16418170,35747
16420172,35154
16422175,34109
16424177,33440
16426179,31909
16428182,30580
16430185,30692
16432186,28713
16434190,27977
16436193,27375
16438195,26748
16440197,27002
16442198,26398
16444202,25969
16446202,26245
16448204,25637
16450204,26221
16452206,25700
16454207,25171
16456208,25552
16458209,25639
16460213,26545
16462217,26496
16464217,25907
16466218,26307
16468218,25928
16470219,26182
16472223,26579
16474227,26013
16476228,26632
16478230,26355
16480232,26000
16482234,26436
16484235,25901
16486237,26634
16488239,26187
16490239,25905
16492239,25584
16494242,24555
16496244,24820
16498246,24970
16500248,24861
16502251,25169
16504251,24583
16506252,25208
16508252,25086
16510252,24628
16512252,24114
16514256,22597
16516257,22884
16518260,23041
16520264,22730
16522265,22676
16524267,22444
16526270,22843
16528274,23909
16530274,24652
16532274,26230
16534274,27827
16536278,27940
16538279,27911
16540279,25158
16542281,25573
16544285,25187
16546285,23058
16548287,22369
16550288,21371
16552291,21260
16554293,20473
16556296,20282
16558300,20714
16560302,20233
16562305,20789
16564306,63293
16566310,51752
16568311,21928
16570311,20697
16572314,20965
16574318,20535
16576320,20663
16578322,20708
16580322,20259
16582322,20790
16584323,21148
16586325,21670
16588328,22547
16590331,19951
16592333,18620
16594336,11676
16596340,15987
16598343,19954
16600343,44532
16602347,63117
16604348,63202
16606348,63224
16608348,62236
16610348,45715
16612351,10830
16614355,6124
16616355,4921
16618357,13567
16620359,17168
16622360,20259
16624362,20960
16626363,20459
16628366,20811
16630369,19735
16632371,20186
16634371,20375
16636374,19909
16638376,20685
16640376,20567
16642378,21580
16644382,21900
16646383,21371
16648386,21224
16650390,21674
16652394,22339
16654395,22271
16656398,21872
16658401,22648
16660403,22759
16662406,23214
16664409,24090
16666410,24151
16668410,24928
16670412,25030
16672413,25047
16674413,26229
16676414,26225
16678415,26451
16680418,27275
16682421,27124
16684423,28467
16686425,28627
16688426,29263
16690429,30906
16692432,30708
16694434,31742
16696434,31797
16698437,32943
16700437,33916
16702440,34230
16704440,35650
16706443,35784
16708446,35938
16710449,36935
16712453,36445
16714454,37549
16716455,36520
16718458,36115
16720460,35106
16722461,33729
16724465,33948
16726469,31526
16728471,30848
16730472,30594
16732472,28281
16734476,27904
16736480,27081
16738480,27083
16740482,26906
16742485,25984
16744488,26315
16746491,25998
16748491,26098
16750492,26279
16752492,25182
16754495,25543
16756497,25367
16758501,25748
16760503,26638
16762505,26003
16764508,26380
16766509,26079
16768512,25742
16770515,26509
16772516,26096
16774518,26478
16776520,26511
16778521,26049
16780523,26297
16782524,26053
16784527,26494
16786527,26531
16788527,25742
16790527,26289
16792530,25286
