9,17693
2012,17596
4015,18191
6016,18919
8018,20184
10018,20836
12019,21900
14021,21848
16023,21393
18025,20108
20027,20361
22029,19441
24029,18167
26030,17315
28032,17024
30035,16699
32037,15946
34037,16280
36041,16549
38044,16407
40046,16661
42046,16337
44046,16563
46050,16590
48051,16326
50052,16689
52056,16393
54058,16598
56061,16595
58061,16235
60063,16659
62067,17000
64067,17329
66071,17686
68072,14894
70072,13548
72075,8928
74079,14476
76083,20032
78084,35768
80088,62905
82090,62934
84091,62907
86094,42037
88095,29831
90095,6498
92098,4211
94102,5844
96103,10937
98106,15204
100107,16395
102110,16407
104113,16553
106114,16411
108116,15549
110119,16219
112120,16086
114121,16177
116123,16584
118124,16349
120124,17364
122127,17183
124130,17028
126133,16664
128135,17153
130138,17704
132139,17546
134141,17530
136142,17844
138146,17668
140147,19030
142151,19206
144153,19251
146156,19885
148160,19490
150162,20253
152163,20743
154163,20606
156165,21062
158165,21231
160165,21849
162166,22336
164170,22687
166170,23515
168171,23901
170174,24733
172175,24967
174175,24669
176176,26692
178177,26724
180180,27373
182181,28170
184182,27770
186185,28632
188185,28857
190188,29238
192190,29363
194193,28094
196195,28396
198198,27179
200198,26772
202200,26189
204203,24446
206204,24349
208207,23428
210208,22740
212211,21804
214212,21235
216212,21711
218216,20809
220218,20807
222219,20703
224221,20100
226224,20707
228226,20380
230227,20184
232229,20285
234229,19819
236231,20929
238235,20761
240238,20806
242241,20684
244241,20144
246243,20672
248247,20761
250249,20744
252249,20988
254249,20550
256249,20876
258249,20531
260253,20591
262256,21045
264259,20541
266262,20599
268262,20422
270263,19954
272265,19656
274265,19283
276265,19882
278266,19836
280266,19466
282269,19972
284272,19620
286274,19912
288275,19884
290277,20993
292281,21774
294284,21614
296285,21995
298288,21778
300292,20958
302293,21710
304297,21719
306297,22698
308300,24343
310303,24883
312304,26801
314306,25794
316309,25306
318309,23912
320310,23403
322310,23367
324313,21429
326314,20599
328317,20365
330318,19467
332319,19316
334319,19059
336321,19414
338324,19503
340324,19050
342324,19560
344327,19656
346330,19777
348332,19913
350333,19115
352333,19585
354333,19389
356334,19314
358334,19543
360334,19069
362337,20529
364337,20759
366340,21022
368340,17833
370340,14514
372344,10507
374345,17808
376348,27464
378352,43838
380355,62884
382357,62934
384359,62858
386360,47270
388363,31379
390363,7612
392363,4770
394367,7516
396369,13129
398372,18522
400375,18942
402378,19925
404381,19352
406383,19099
408383,18833
410386,18656
412388,19175
414388,19049
416390,19291
418390,20105
420390,20158
422394,20591
424396,20303
426399,19579
428402,21228
430403,20863
432406,20976
434408,21058
436412,21127
438412,21787
440415,22280
442416,22882
444418,23071
446420,23129
448422,23766
450425,23495
452428,24794
454430,24897
456431,24486
458433,26031
460436,25920
462436,26604
464436,27756
466438,27776
468441,29379
470442,29607
472444,29803
474444,30069
476446,31028
478447,32398
480450,32625
482450,33625
484451,34227
486454,33735
488455,35154
490458,34896
492461,35067
494462,34482
496466,33117
498468,33062
500471,31535
502473,30986
504473,30000
506475,28499
508476,28245
510479,26764
512482,25790
514485,25624
516485,25188
518488,24791
520492,24363
522495,24535
524498,24541
526500,24135
528503,24687
530507,23544
532508,23843
534511,23825
536511,24359
538512,25018
540514,24600
542514,24821
544517,24929
546520,24443
548520,25006
550520,24675
552522,24757
554523,24967
556524,24392
558526,24981
560529,24363
562532,24395
564534,24597
566537,23751
568538,24643
570541,24353
572545,24413
574545,24573
576547,24035
578547,24613
580547,24336
582551,24379
584553,24604
586553,24022
588554,24608
590556,24475
592557,24302
594560,24640
596562,24055
598566,24637
600569,24724
602572,24726
604575,25011
606578,24385
608580,25042
610582,24699
612582,24766
614583,25000
616584,24406
618586,25023
620587,24764
622588,24635
624591,24994
626593,24447
628596,24991
630599,24743
632600,24723
634601,25006
636602,24451
638602,24970
640603,24843
642603,24640
644605,24991
646608,24412
648608,24956
650608,24846
652610,24545
654613,25006
656614,24475
658617,24881
660621,24400
662624,24238
664624,24598
666627,24136
668627,24576
670627,24510
672629,24148
674630,24649
676633,24154
678636,24559
680636,24901
682637,24512
684639,25072
686642,24421
688643,24935
690646,24885
692647,24411
694650,25162
696651,24511
698651,24922
700653,24900
702657,24416
704659,25084
706659,24565
708661,24913
710662,24846
712665,24487
714665,25060
716665,24631
718669,24835
720669,24561
722669,24047
724671,24701
726672,24282
728673,24367
730675,24612
732676,24042
734678,24630
736680,24367
738682,24210
740683,23969
742686,23352
744687,23911
746687,23697
748690,23637
750693,23897
752694,23374
754698,23887
756698,23749
758699,23416
760701,23236
762703,22670
764706,23175
766708,23041
768711,22804
770712,23227
772712,22653
774712,23155
776716,23001
778717,22878
780719,23558
782722,23058
784723,23560
786727,23417
788730,23113
790731,23484
792734,23059
794737,23552
796741,23376
798745,23195
800745,23574
802748,23028
804750,23549
806751,23420
808752,23092
810755,23592
812758,23030
814760,23529
816760,23474
818763,23029
820765,23555
822768,23063
824770,23520
826770,23517
828771,23032
830774,23588
832776,23136
834777,23442
836778,23473
838779,23045
840779,23588
842779,23251
844781,23410
846784,23412
848786,23023
850787,23629
852788,23224
854789,23356
856790,23528
858792,22987
860795,23509
862798,23292
864800,23352
866802,23578
868803,22979
870807,23564
872808,23352
874810,23316
876810,23556
878811,22191
880814,18966
882815,18642
884815,18616
886815,18832
888818,18373
890818,18857
892820,18648
894820,18572
896821,18816
898821,18389
900825,18756
902825,18701
904825,18451
906827,18856
908830,18544
910830,18778
912831,18762
914833,18423
916835,18857
918837,18607
920840,19036
922843,19108
924843,18705
926844,19206
928846,18945
930847,19054
932847,19162
934849,18694
936851,19177
938853,18899
940856,18360
942860,18442
944861,17981
946864,18506
948866,18232
950869,18310
952871,18466
954874,18013
956875,18468
958876,18317
960878,18581
962881,18782
964883,18336
966884,18808
968884,18612
970887,18647
972889,18798
974889,18328
976890,18808
978890,18883
980891,19231
982893,19571
984897,19082
986900,19514
988903,19374
990905,19262
992909,19540
994909,19075
996912,19527
998912,20024
1000912,21058
1002913,21367
1004913,20887
1006916,21316
1008916,21243
1010919,21056
1012923,21346
1014924,20847
1016925,21166
1018927,21763
1020930,22760
1022932,23177
1024935,22658
1026938,23147
1028938,23021
1030940,22678
1032941,23173
1034941,22646
1036943,23078
1038944,22788
1040945,22095
1042947,22418
1044948,22015
1046950,22423
1048950,22353
1050952,21995
1052953,22536
1054956,22055
1056958,22392
1058960,21872
1060962,20625
1062965,21036
1064968,20593
1066968,20927
1068971,20934
1070973,20563
1072973,21026
1074975,20668
1076978,20904
1078981,20944
1080983,20465
1082985,21043
1084987,20683
1086991,20841
1088992,20958
1090995,20503
1092997,21029
1095000,20761
1097004,20819
1099004,20314
1101007,18407
1103009,18816
1105010,18626
1107013,18684
1109016,18884
1111018,18367
1113021,18851
1115023,18594
1117025,18648
1119028,18490
1121031,17280
1123032,17736
1125034,17592
1127035,17591
1129038,17761
1131042,17290
1133044,17760
1135044,17592
1137047,17510
1139049,17637
1141052,16959
1143054,17356
1145054,17253
1147056,17086
1149056,17379
1151056,17066
1153056,17327
1155057,17288
1157060,16925
1159063,17010
1161064,16433
1163064,16594
1165065,16653
1167066,16231
1169066,16697
1171068,16477
1173068,16517
1175070,16685
1177071,16247
1179072,16808
1181075,16844
1183075,16814
1185075,17024
1187076,16615
1189077,16964
1191081,16939
1193082,16749
1195083,17026
1197087,16635
1199090,16976
1201093,16928
1203095,16735
1205097,17001
1207098,16645
1209098,17020
1211101,16913
1213103,16717
1215106,17000
1217107,16637
1219111,16996
1221112,16898
1223113,16686
1225114,16976
1227117,16641
1229117,16967
1231119,16909
1233120,16707
1235120,16967
1237123,16665
1239124,17090
1241126,17287
1243127,16972
1245128,17366
1247128,17092
1249129,17256
1251132,17320
1253132,16932
1255133,17351
1257136,17077
1259137,17235
1261139,17314
1263139,16890
1265140,17377
1267141,17153
1269142,17205
1271142,17336
1273146,16876
1275146,17341
1277148,17210
1279150,17025
1281152,17003
1283153,16607
1285154,16986
1287156,16900
1289158,16802
1291159,17003
1293161,16685
1295163,16982
1297166,16920
1299170,16757
1301171,16966
1303172,16681
1305172,16955
1307175,16916
1309176,16685
1311178,17011
1313179,16711
1315181,17062
1317184,16940
1319187,16646
1321190,17012
1323192,16696
1325192,16958
1327192,16908
1329193,16657
1331196,17007
1333197,16727
1335199,16891
1337199,16994
1339200,16551
1341203,17009
1343205,16837
1345206,16891
1347208,16947
1349209,16561
1351209,16962
1353213,16842
1355213,16875
1357214,17004
1359216,16976
1361219,17693
1363221,17552
1365223,17550
1367226,17729
1369228,17331
1371230,17793
1373230,17594
1375231,17462
1377231,17756
1379233,17778
1381234,18422
1383234,18390
1385238,18141
1387242,18516
1389246,18033
1391247,18390
1393249,18374
1395253,18198
1397254,18470
1399254,16430
1401255,15165
1403255,15071
1405256,14861
1407259,15200
1409262,14979
1411265,15101
1413266,15141
1415269,14823
1417272,15221
1419274,11864
1421275,9318
1423275,9277
1425276,9117
1427278,9266
1429279,9146
1431281,9201
1433284,9276
1435286,9001
1437288,9218
1439291,12836
1441294,15918
1443296,16305
1445297,15948
1447299,16244
1449303,16183
1451306,16021
1453308,16311
1455310,15854
1457311,16260
1459313,30141
1461313,37121
1463313,38122
1465315,37478
1467315,37816
1469315,38062
1471317,37323
1473319,38122
1475321,37489
1477324,37913
1479326,57992
1481326,62990
1483327,62958
1485328,62908
1487329,62912
1489330,62858
1491332,62947
1493332,62954
1495334,62959
1497336,63140
1499338,62971
1501340,62878
1503341,62831
1505343,63000
1507344,62914
1509347,62896
1511350,62961
1513350,62902
1515353,62934
1517353,62967
1519356,51974
1521358,37690
1523362,36647
1525365,37402
1527365,36789
1529365,37126
1531368,37276
1533369,36638
1535371,37381
1537373,36793
1539374,18654
1541377,6382
1543379,6104
1545404,6070
1547405,6029
1549409,6106
1551410,6062
1553412,6084
1555412,6104
1557414,6037
1559416,4739
1561418,3939
1563419,3904
1565421,3890
1567421,3922
1569423,3917
1571423,3903
1573423,3907
1575424,3902
1577426,3890
1579428,9163
1581431,11434
1583432,11305
1585434,11457
1587436,11444
1589438,11291
1591439,11519
1593439,11363
1595440,11457
1597441,11491
1599444,14614
1601444,16637
1603447,16263
1605448,16494
1607451,16645
1609453,16265
1611456,16588
1613460,16509
1615463,16480
1617463,16626
1619466,16721
1621468,17363
1623469,17223
1625470,17091
1627470,17379
1629471,17024
1631472,17312
1633475,17275
1635476,17014
1637476,17356
1639479,16830
1641481,16952
1643482,16956
1645482,16608
1647483,17002
1649485,16778
1651487,16870
1653488,16936
1655490,16588
1657491,17016
1659492,16364
1661494,16149
1663496,16267
1665497,15871
1667498,16279
1669501,16109
1671503,16115
1673505,16304
1675506,15876
1677507,16287
1679510,16421
1681512,16427
1683514,16681
1685516,16310
1687517,16644
1689517,16543
1691521,16398
1693524,16676
1695526,16313
1697527,16613
1699530,16641
1701532,16295
1703533,16705
1705534,16374
1707534,16541
1709535,16637
1711537,16253
1713539,16647
1715541,16453
1717545,16575
1719548,16898
1721550,16568
1723552,17066
1725554,16765
1727557,16889
1729560,16970
1731563,16571
1733565,17040
1735566,16785
1737566,16918
1739568,17544
1741569,17293
1743573,17753
1745575,17570
1747579,17541
1749581,17716
1751583,17325
1753584,17699
1755586,17623
1757586,17489
1759588,17528
1761592,17340
1763593,17704
1765595,17643
1767598,17436
1769600,17762
1771602,17413
1773606,17702
1775609,17618
1777612,17457
1779613,17460
1781614,17086
1783614,17302
1785617,17310
1787619,16959
1789623,17400
1791625,17155
1793626,17262
1795627,17364
1797630,16932
1799633,18218
1801634,18252
1803636,18334
1805637,18432
1807639,17999
1809642,18490
1811644,18267
1813646,18308
1815650,18441
1817650,17997
1819651,18219
1821651,17911
1823653,17911
1825654,18063
1827658,17665
1829659,18089
1831659,17938
1833661,17885
1835662,18114
1837662,17761
1839663,18414
1841664,18373
1843666,18203
1845670,18510
1847670,18113
1849672,18450
1851673,18366
1853674,18135
1855676,18479
1857678,18142
1859681,18656
1861682,18744
1863684,18412
1865686,18862
1867686,18552
1869688,18725
1871691,18805
1873694,18418
1875696,18853
1877698,18520
1879701,19319
1881703,19464
1883705,19082
1885708,19567
1887711,19236
1889714,19422
1891717,19496
1893720,19051
1895720,19553
1897722,19282
1899722,20049
1901725,20231
1903727,19809
1905728,20309
1907730,19996
1909733,20198
1911735,20228
1913736,19841
1915737,20317
1917739,19990
1919740,20479
1921740,20617
1923740,20142
1925743,20664
1927744,20412
1929746,20441
1931746,20655
1933749,20122
1935750,20664
1937751,20389
1939753,20743
1941755,20968
1943759,20467
1945761,20980
1947762,20747
1949764,20829
1951767,21008
1953767,20466
1955770,21028
1957773,20741
1959776,21403
1961778,21720
1963780,21211
1965782,21744
1967783,21466
1969786,21565
1971789,21810
1973791,21228
1975793,21782
1977795,21457
1979799,21578
1981800,21702
1983802,21204
1985802,21767
1987804,21481
1989806,21601
1991807,21712
1993809,21200
1995811,21812
1997813,21489
1999813,22203
2001815,22442
2003818,21934
2005819,22500
2007822,22139
2009824,22313
2011825,22410
2013829,21924
2015829,22490
2017830,22125
2019831,22883
2021832,23163
2023836,22504
2025837,23229
2027839,22884
2029842,23044
2031843,23136
2033845,22639
2035845,23227
2037846,22879
2039846,23625
2041847,23901
2043849,23344
2045851,23973
2047853,23602
2049855,23817
2051857,23924
2053858,23355
2055860,23961
2057861,23670
2059863,24873
2061864,25297
2063866,24774
2065870,25411
2067871,25266
2069872,25166
2071873,25363
2073873,24805
2075874,25402
2077877,24929
2079877,25385
2081879,25776
2083881,25142
2085882,25716
2087884,25509
2089885,25428
2091886,25796
2093887,25124
2095887,25736
2097890,25492
2099892,25732
2101893,26066
2103895,25492
2105897,26107
2107897,25905
2109897,25702
2111900,26105
2113904,25505
2115904,26103
2117907,25876
2119909,27007
2121910,27590
2123911,26984
2125912,27545
2127912,27353
2129913,27202
2131913,27614
2133917,26934
2135920,27551
2137921,27330
2139923,28061
2141923,28675
2143924,28040
2145925,28601
2147925,28477
2149927,28150
2151928,28655
2153931,28019
2155931,28565
2157934,28369
2159936,28840
2161939,29430
2163942,28683
2165943,29358
2167943,29193
2169944,28921
2171945,29424
2173947,28789
2175949,29338
2177951,29142
2179954,29192
2181955,29751
2183957,29073
2185959,29702
2187961,29523
2189963,29256
2191965,29773
2193967,29079
2195969,29732
2197970,29491
2199971,29557
2201975,30106
2203979,29419
2205981,30088
2207983,29861
2209985,29657
2211989,30099
2213993,29366
2215997,30026
2217997,29752
2219999,30097
2222000,30467
2224003,29768
2226006,30472
2228007,30110
2230009,30159
2232010,30475
2234011,29779
2236012,30480
2238015,30067
2240018,29609
2242020,29696
2244021,29052
2246021,29756
2248024,29333
2250025,29529
2252026,29765
2254027,29089
2256030,29757
2258031,29408
2260031,28512
2262031,28697
2264034,28016
2266038,28667
2268038,28274
2270041,28433
2272043,28633
2274046,27965
2276048,28629
2278050,28246
2280053,27519
2282056,27587
2284057,26957
2286060,27583
2288061,27177
2290062,27385
2292065,27538
2294068,26933
2296069,27594
2298072,27149
2300072,25736
2302074,25716
2304075,25126
2306077,25785
2308078,25367
2310080,25560
2312083,25717
2314085,25100
2316087,25766
2318088,25345
2320088,24821
2322089,24967
2324090,24404
2326093,24989
2328095,24783
2330098,24741
2332098,24981
2334098,24371
2336101,24999
2338104,24672
2340105,23484
2342107,23539
2344108,22993
2346112,23554
2348115,23384
2350115,23360
2352117,23518
2354120,22995
2356121,23566
2358122,23271
2360125,23362
2362127,23572
2364129,23018
2366131,23542
2368133,23273
2370136,23316
2372138,23528
2374139,22991
2376141,23643
2378143,22927
2380145,22364
2382147,22465
2384149,21874
2386151,22500
2388155,22199
2390158,22257
2392159,22435
2394161,21918
2396165,22494
2398166,22129
2400169,22308
2402171,22418
2404173,21939
2406174,22481
2408176,22176
2410180,22358
2412182,22421
2414183,21916
2416183,22488
2418185,22035
2420188,21523
2422189,21730
2424189,21212
2426192,21774
2428195,21567
2430197,21452
2432199,21924
2434200,21245
2436202,21729
2438204,21407
2440207,21090
2442209,21347
2444211,20851
2446213,21361
2448215,21201
2450215,21088
2452216,21389
2454216,20902
2456217,21345
2458218,21258
2460218,20977
2462218,21377
2464218,20965
2466219,21343
2468219,21273
2470222,20895
2472223,21395
2474225,21153
2476229,21303
2478232,21257
2480234,20998
2482234,21375
2484234,21001
2486236,21320
2488238,21309
2490241,20924
2492241,21418
2494241,20978
2496242,21293
2498244,21152
2500247,20559
2502248,20946
2504248,20731
2506250,20832
2508251,20974
2510254,20499
2512256,20996
2514256,20739
2516256,20867
2518256,20982
2520256,20508
2522259,20869
2524260,20807
2526263,20735
2528264,21002
2530267,20499
2532269,21010
2534270,20842
2536270,20860
2538271,21357
2540274,21206
2542276,21704
2544278,21574
2546279,21441
2548280,21784
2550283,21265
2552285,21714
2554286,21630
2556288,21401
2558290,21790
2560290,21355
2562293,21690
2564294,21671
2566297,21261
2568297,21795
2570301,21379
2572302,21652
2574302,21660
2576303,21272
2578307,21584
2580310,21056
2582312,21265
2584313,21285
2586316,20913
2588316,21463
2590320,21008
2592322,21289
2594323,21249
2596325,20936
2598327,21347
2600330,21018
2602332,21294
2604335,21327
2606338,20991
2608339,21382
2610341,21173
2612343,21309
2614344,21281
2616344,20873
2618346,21574
2620348,21418
2622348,21651
2624349,21687
2626353,21222
2628353,21796
2630354,21476
2632356,21538
2634356,21724
2636359,21245
2638360,21774
2640363,21495
2642365,21541
2644366,21730
2646366,21233
2648367,21731
2650369,21516
2652369,21455
2654371,21734
2656372,21208
2658373,21730
2667288,21550
2669289,21679
2671293,21193
2673293,21752
2675297,21505
2677297,21562
2679297,21414
2681299,20901
2683299,21387
2685299,21184
2687300,21101
2689302,21393
2691305,20861
2693305,21335
2695306,21241
2697307,21017
2699310,21725
2701312,21313
2703312,21691
2705315,21666
2707316,21298
2709317,21758
2711317,21357
2713321,21682
2715321,21686
2717323,21314
2719323,21790
2721327,21393
2723330,21662
2725332,21668
2727336,21254
2729336,21674
2731336,21311
2733340,21584
2735340,21618
2737342,21302
2739343,21415
2741346,21010
2743346,21232
2745349,21337
2747351,20835
2749353,21365
2751356,21016
2753359,21259
2755363,21393
2757367,20854
2759367,21036
2761368,20718
2763370,20894
2765373,20925
2767376,20498
2769380,21018
2771382,20679
2773384,20879
2775402,20831
2777402,20624
2779405,20369
2781408,19845
2783410,20223
2785411,20167
2787413,19863
2789413,20358
2791413,19909
2793415,20231
2795416,20205
2797418,19917
2799421,20658
2801422,20281
2803424,20613
2805426,20575
2807429,20217
2809430,20655
2811431,20284
2813434,20545
2815436,20580
2817439,20223
2819441,20690
2821444,20351
2823446,20524
2825450,20565
2827453,20187
2829456,20674
2831456,20297
2833460,20597
2835460,20605
2837461,20117
2839464,20681
2841467,20326
2843467,20545
2845467,20578
2847469,20176
2849469,20663
2851471,20451
2853474,20533
2855478,20567
2857478,20133
2859481,20694
2861482,20349
2863482,20519
2865482,20635
2867483,20148
2869485,20668
2871486,20443
2873488,20481
2875488,20607
2877492,20112
2879495,20664
2881497,20405
2883499,20445
2885501,20649
2887501,20137
2889502,20668
2891503,20426
2893504,20436
2895505,20672
2897507,20166
2899510,18288
2901511,17922
2903512,17981
2905514,18049
2907515,17650
2909517,18113
2911519,17918
2913521,17894
2915522,18066
2917526,17660
2919529,18121
2921529,17933
2923530,17975
2925531,18091
2927533,17662
2929536,18121
2931538,17933
2933539,17949
2935543,18089
2937543,17600
2939547,18101
2941548,17966
2943550,17874
2945551,18093
2947554,17695
2949557,18119
2951559,17965
2953561,17855
2955565,18170
2957567,17728
2959569,17729
2961570,17628
2963573,17467
2965576,17742
2967580,17276
2969580,17702
2971581,17633
2973583,17439
2975586,17859
2977587,17399
2979587,17930
2981590,18023
2983592,17819
2985593,18103
2987597,17794
2989599,18072
2991600,18048
2993600,17811
2995603,18143
2997606,17789
2999609,18712
3001612,18722
3003613,18398
3005616,18849
3007620,18431
3009622,18769
3011624,18736
3013625,18519
3015629,18859
3017632,18460
3019635,20499
3021637,20533
3023639,20421
3025639,20683
3027640,20263
3029642,20607
3031644,20553
3033645,20263
3035647,20888
3037650,20243
3039652,21976
3041654,21996
3043656,21690
3045658,22151
3047659,21709
3049662,22025
3051664,22205
3053664,21642
3055666,22157
3057666,21795
3059667,21656
3061670,21680
3063673,21255
3065674,21796
3067675,21413
3069677,21624
3071678,21668
3073679,21235
3075680,21782
3077684,21434
3079688,19936
3081688,19867
3083690,19490
3085692,19960
3087693,19665
3089695,19839
3091697,19872
3093698,19454
3095700,19966
3097704,19644
3099707,19828
3101708,19874
3103711,19458
3105714,19942
3107717,19645
3109719,19831
3111720,19880
3113720,19464
3115720,19950
3117720,19699
3119722,18069
3121724,18093
3123725,17640
3125729,18122
3127732,17851
3129736,18041
3131739,18081
3133740,17676
3135743,18149
3137746,17825
3139746,16951
3141748,16974
3143748,16617
3145750,17010
3147752,16775
3149753,16900
3151756,16955
3153758,16585
3155761,17005
3157761,16811
3159762,16561
3161762,16629
3163762,16257
3165762,16671
3167763,16489
3169766,16470
3171768,16641
3173770,16262
3175773,16652
3177773,16497
3179776,15703
3181776,15894
3183777,15550
3185778,15894
3187782,15798
3189784,15700
3191787,15924
3193788,15607
3195790,15920
3197791,15794
3199794,16036
3201796,16301
3203798,15969
3205800,16277
3207803,16223
3209806,16003
3211806,16267
3213807,16123
3215807,16279
3217809,16176
3219812,16001
3221812,16260
3223812,16054
3225814,16224
3227816,16254
3229820,15990
3231822,16284
3233824,16024
3235826,16235
3237827,16215
3239830,16016
3241831,16311
3243831,16067
3245834,16227
3247836,16203
3249837,15928
3251840,16303
3253840,16078
3255842,16255
3257844,16221
3259847,16249
3261848,16677
3263850,16398
3265853,16626
3267855,16581
3269856,16281
3271858,16685
3273860,16399
3275864,16565
3277864,16602
3279867,16261
3281867,16667
3283867,16414
3285868,16594
3287869,16614
3289870,16245
3291872,16666
3293872,16503
3295875,16554
3297876,16748
3299879,15915
3301882,16297
3303883,16092
3305886,16211
3307890,16256
3309893,15949
3311895,16299
3313896,16018
3315896,16197
3317897,16283
3319899,15864
3321900,16292
3323901,16094
3325904,16215
3327905,16269
3329907,15886
3331908,16301
3333909,16115
3335909,16142
3337910,16281
3339912,15894
3341915,16308
3343915,16153
3345918,16123
3347919,16319
3349920,15902
3351922,16271
3353923,16135
3355924,16076
3357925,16275
3359927,15918
3361928,16266
3363929,16191
3365930,16015
3367933,16365
3369937,16008
3371940,16313
3373941,16204
3375943,16057
3377945,16393
3379947,16627
3381948,16952
3383949,16914
3385950,16693
3387950,17062
3389953,16725
3391955,16969
3393955,16931
3395955,16589
3397957,17078
3399960,17416
3401962,17684
3403962,17676
3405964,17268
3407965,17740
3409965,17517
3411966,17644
3413968,17688
3415969,17287
3417973,17456
3419973,14412
3421973,14338
3423976,14462
3425980,14111
3427982,14490
3429984,14281
3431986,14342
3433987,14434
3435990,14120
3437992,13980
3439994,8971
3441995,8828
3443997,8852
3445998,8662
3447998,8891
3449998,8854
3452001,8769
3454002,8898
3456005,8770
3458008,9262
3460011,15259
3462011,15156
3464014,15567
3466014,15297
3468017,15467
3470019,15511
3472019,15184
3474019,15553
3476019,15360
3478019,18756
3480021,35728
3482024,35481
3484026,36217
3486027,35971
3488028,35803
3490028,36300
3492029,35577
3494030,36267
3496032,35969
3498033,40659
3500033,63002
3502035,62988
3504037,62926
3506040,62958
3508041,63010
3510043,62849
3512044,62931
3514045,62956
3516047,62982
3518049,62998
3520051,62970
3522052,62992
3524052,63002
3526054,63115
3528055,62909
3530058,62964
3532058,62958
3534059,62888
3536062,62992
3538065,62934
3540066,35949
3542067,35630
3544068,34824
3546071,35469
3548072,35345
3550072,34838
3552072,35584
3554073,34866
3556073,35377
3558076,31403
3560078,6509
3562081,5733
3564082,5646
3566083,5714
3568085,5664
3570087,5633
3572088,5697
3574088,5643
3576089,5679
3578091,5414
3580094,3931
3582094,3917
3584097,3903
3586099,3906
3588101,3909
3590104,3886
3592106,3907
3594108,3881
3596110,3909
3598112,6104
3600113,10825
3602114,11095
3604114,11115
3606115,10939
3608118,11162
3610118,11034
3612120,11081
3614122,11147
3616125,10844
3618128,12457
3620128,15677
3622128,15729
3624131,15921
3626133,15537
3628136,15892
3630138,15810
3632140,15670
3634142,15928
3636144,15621
3638147,16200
3640151,16530
3642152,16478
3644154,16641
3646154,16373
3648157,16623
3650160,16566
3652161,16379
3654163,16671
3656164,16409
3658165,16456
3660168,16280
3662170,15930
3664171,16327
3666173,16050
3668173,16203
3670175,16257
3672177,15886
3674178,16315
3676179,16130
3678181,15987
3680183,15538
3682185,15138
3684186,15554
3686188,15379
3688191,15353
3690193,15573
3692196,15161
3694197,15586
3696199,15296
3698200,15427
3700203,15919
3702203,15571
3704203,15891
3706205,15814
3708206,15694
3710207,15950
3712209,15610
3714211,15895
3716212,15814
3718214,15637
3720216,15932
3722219,15623
3724220,15883
3726220,15872
3728223,15616
3730226,15922
3732227,15641
3734230,15844
3736233,15866
3738234,15693
3740236,16303
3742237,16071
3744238,16219
3746241,16249
3748242,15922
3750246,16347
3752247,16064
3754248,16129
3756251,16249
3758254,16147
3760256,17027
3762260,16774
3764262,16913
3766262,16994
3768263,16594
3770266,17036
3772269,16800
3774272,16895
3776272,17028
3778272,16569
3780275,17052
3782278,16832
3784280,16886
3786281,16999
3788284,16583
3790287,17032
3792288,16842
3794292,16842
3796294,17002
3798297,16465
3800301,16666
3802302,16502
3804304,16514
3806306,16668
3808307,16221
3810309,16645
3812311,16546
3814311,16453
3816312,16606
3818316,16629
3820319,17726
3822321,17596
3824323,17513
3826323,17741
3828326,17344
3830329,17693
3832332,17622
3834333,17423
3836337,17732
3838337,17189
3840340,17355
3842340,17259
3844340,17107
3846340,17380
3848343,17084
3850346,17340
3852346,17271
3854348,17090
3856351,17382
3858354,17216
3860358,17596
3862361,17672
3864362,17489
3866363,17750
3868365,17432
3870368,17668
3872368,17642
3874369,17377
3876371,17776
3878373,17592
3880375,18035
3882378,18053
3884379,17725
3886379,18127
3888383,17786
3890385,18034
3892388,18069
3894388,17700
3896392,18135
3898396,18266
3900398,18742
3902399,18788
3904399,18336
3906399,18853
3908401,18620
3910401,18701
3912403,18824
3914405,18393
3916405,18854
3918407,18806
3920410,19001
3922412,19142
3924412,18724
3926414,19186
3928415,18970
3930417,19022
3932417,19185
3934418,18703
3936419,19175
3938420,19191
3940421,19363
3942421,19568
3944422,19133
3946423,19535
3948424,19416
3950425,19260
3952428,19581
3954430,19141
3956434,19517
3958436,19619
3960440,19657
3962442,19940
3964444,19429
3966445,19961
3968448,19759
3970451,19724
3972452,19932
3974454,19450
3976456,19910
3978459,20129
3980463,20398
3982464,20661
3984466,20132
3986466,20629
3988468,20481
3990472,20409
3992474,20649
3994476,20164
3996478,20683
3998479,20469
4000480,20393
4002480,20673
4004484,20259
4006486,20652
4008488,20517
4010490,20367
4012490,20661
4014491,20261
4016493,20638
4018493,21092
4020496,21315
4022498,21790
4024501,21323
4026504,21716
4028507,21598
4030511,21437
4032512,21760
4034515,21241
4036516,21675
4038519,21711
4040523,21794
4042525,22151
4044526,21646
4046529,22108
4048529,21913
4050532,21786
4052533,22137
4054537,21634
4056539,22084
4058539,22346
4060539,22464
4062542,22875
4064542,22430
4066544,22754
4068547,22715
4070549,22337
4072552,22854
4074553,22406
4076556,22779
4078560,23533
4080563,23937
4082566,24288
4084567,23727
4086569,24242
4088569,24128
4090572,23927
4092573,24303
4094576,23741
4096577,24241
4098579,24376
4100581,24260
4102581,24647
4104582,24174
4106583,24547
4108586,24549
4110588,24139
4112590,24674
4114591,24202
4116592,24723
4118592,24810
4120593,24479
4122593,25034
4124595,24623
4126596,24894
4128596,24987
4130599,24447
4132600,25041
4134601,24599
4136603,24948
4138607,25854
4140609,25760
4142612,26514
4144613,26024
4146615,26334
4148618,26391
4150620,25912
4152622,26531
4154623,26028
4156624,26368
4158627,26885
4160629,26606
4162632,27294
4164634,26804
4166636,27071
4168636,27135
4170639,26610
4172640,27256
4174641,26777
4176642,27078
4178645,27576
4180647,27334
4182650,28003
4184650,27370
4186652,27773
4188653,27889
4190656,27351
4192658,27967
4194659,27472
4196660,27732
4198660,28106
4200660,27650
4202663,28313
4204665,27909
4206669,28097
4208672,28265
4210675,27681
4212676,28328
4214678,27945
4216679,28108
4218679,28712
4220681,28374
4222683,29055
4224685,28605
4226686,28854
4228689,28951
4230692,28384
4232693,29046
4234695,28597
4236698,28833
4238701,28980
4240704,28396
4242706,29088
4244707,28609
4246710,28885
4248713,28943
4250715,28440
4252717,28991
4254718,28575
4256720,28908
4258723,28429
4260725,27712
4262727,28312
4264727,27811
4266729,28136
4268730,28186
4270732,27706
4272735,28320
4274737,27802
4276737,28152
4278739,27241
4280740,26668
4282741,27244
4284743,26710
4286744,27099
4288746,27123
4290749,26687
4292751,27243
4294751,26842
4296751,27091
4298753,26640
4300756,25921
4302758,26518
4304759,26014
4306761,26194
4308764,26355
4310767,25908
4312769,26522
4314772,25900
4316776,26388
4318779,24913
4320782,24193
4322784,24703
4324786,24086
4326789,24592
4328793,24482
4330795,24181
4332797,24649
4334799,24085
4336801,24627
4338804,23922
4340806,23604
4342809,23951
4344810,23621
4346810,23881
4348812,23755
4350814,23493
4352815,23980
4354818,23474
4356818,23885
4358820,22674
4360823,22015
4362825,22524
4364825,21963
4366827,22306
4368829,22338
4370830,22033
4372831,22518
4374833,22060
4376836,22406
4378839,21487
4380842,20885
4382844,21412
4384846,21025
4386846,21317
4388848,21198
4390851,20910
4392854,21430
4394855,20994
4396856,21262
4398858,21311
4400860,20908
4402861,21375
4404862,21062
4406865,21192
4408867,21291
4410867,20847
4412868,21408
4414869,21108
4416869,21230
4418870,20800
4420872,20178
4422874,20657
4424876,20393
4426878,20509
4428880,20636
4430880,20164
4432881,20619
4434882,20435
4436883,20367
4438884,20673
4440886,20136
4442889,20676
4444891,20455
4446895,20425
4448896,20657
4450899,20140
4452902,20623
4454903,20497
4456904,20442
4458904,20637
4460907,20158
4462909,20631
4464911,20473
4466913,20355
4468914,20663
4470916,20148
4472916,20643
4474919,20505
4476919,20237
4478921,20669
4480924,20231
4482924,20603
4484924,20486
4486926,20219
4488927,20684
4490931,20319
4492934,20581
4494935,20560
4496936,20196
4498938,20681
4500940,19781
4502942,19887
4504945,19856
4506948,19481
4508950,19956
4510950,19629
4512952,19876
4514952,19884
4516952,19459
4518954,19924
4520957,19665
4522959,19815
4524961,19888
4526963,19458
4528963,19964
4530965,19782
4532966,19756
4534968,19940
4536971,19452
4538972,19940
4540974,20271
4542976,20398
4544978,20688
4546979,20152
4548979,20621
4550983,20481
4552986,20408
4554987,20732
4556990,20129
4558993,20664
4560994,20533
4562995,20345
4564995,20681
4566997,20217
4568999,20637
4571002,20551
4573002,20316
4575002,20696
4577004,20277
4579007,20596
4581009,20534
4583012,20255
4585013,20776
4587015,20253
4589017,20615
4591020,20584
4593022,20233
4595025,20667
4597029,20274
4599032,20579
4601035,20573
4603037,20186
4605039,20702
4607042,20297
4609045,20616
4611047,20573
4613047,20177
4615048,20689
4617051,20339
4619054,20589
4621058,20563
4623060,20229
4625061,20693
4627061,20393
4629062,20568
4631062,20607
4633064,20214
4635065,20717
4637067,20357
4639067,20497
4641070,20647
4643072,20134
4645075,20673
4647077,20401
4649081,20511
4651085,20601
4653087,20136
4655090,20696
4657093,20359
4659093,20514
4661095,20645
4663097,20122
4665098,20674
4667098,20435
4669100,20389
4671100,20664
4673102,20150
4675102,20675
4677105,20410
4679105,20406
4681107,20703
4683108,20229
4685110,20647
4687113,20491
4689116,20425
4691118,20655
4693120,20181
4695122,20629
4697125,20489
4699128,20401
4701130,20643
4703131,20176
4705134,20667
4707137,20536
4709137,20361
4711139,20669
4713139,20249
4715141,20607
4717142,20541
4719144,20275
4721147,20583
4723149,20294
4725151,20575
4727155,20559
4729155,20379
4731157,20679
4733159,20274
4735160,20599
4737163,20545
4739166,20217
4741167,20673
4743169,20321
4745172,20597
4747175,20529
4749176,20250
4751178,20693
4753179,20330
4755182,20541
4757185,20578
4759186,20217
4761189,20104
4763190,19623
4765191,19849
4767193,19743
4769196,19474
4771199,19963
4773203,19589
4775205,19884
4777207,19841
4779210,19500
4781212,19302
4783215,18873
4785218,19091
4787221,19111
4789223,18776
4791224,19204
4793224,18889
4795224,19086
4797225,19102
4799225,18707
4801228,19460
4803231,19263
4805234,19446
4807237,19518
4809239,19093
4811239,19577
4813241,19262
4815241,19396
4817241,19557
4819244,19075
4821248,19587
4823250,19378
4825254,19472
4827254,19525
4829256,19055
4831256,19577
4833257,19360
4835258,19355
4837260,19571
4839262,19127
4841263,19575
4843263,19436
4845263,19258
4847265,19567
4849267,19170
4851269,19531
4853270,19494
4855272,19177
4857275,19605
4859275,19202
4861278,19464
4863280,19489
4865282,19131
4867283,19590
4869285,19274
4871286,19450
4873288,19499
4875288,19053
4877288,19594
4879291,19338
4881292,19346
4883295,19553
4885297,19060
4887300,19571
4889304,19321
4891308,19426
4893310,19522
4895311,19082
4897313,19567
4899316,19344
4901316,18153
4903318,18101
4905321,17673
4907325,18134
4909327,17904
4911330,17991
4913332,18107
4915335,17634
4917338,18166
4919338,17883
4921341,18021
4923341,18087
4925342,17634
4927344,18104
4929348,17927
4931350,17937
4933351,18164
4935352,17637
4937355,18100
4939356,17951
4941357,18238
4943359,18407
4945361,18007
4947363,18496
4949364,18339
4951366,18260
4953367,18475
4955369,18045
4957372,18468
4959374,18304
4961375,17582
4963376,17740
4965377,17335
4967378,17709
4969380,17765
4971382,17397
4973383,17758
4975413,17323
4977416,17899
4979417,17508
4981418,17962
4983418,18093
4985419,17648
4987419,18091
4989421,17947
4991425,17923
4993427,18104
4995430,17662
4997432,18126
4999432,17981
5001433,18757
5003433,19228
5005436,18741
5007437,19180
5009437,19072
5011437,18867
5013439,19155
5015441,18800
5017443,19129
5019445,19111
5021445,19989
5023447,20663
5025447,20281
5027448,20560
5029449,20563
5031449,20148
5033450,20689
5035450,20354
5037454,20498
5039456,20608
5041459,21675
5043459,22518
5045463,22169
5047463,22294
5049464,22453
5051467,21931
5053470,22464
5055473,22199
5057477,22273
5059480,22405
5061482,21301
5063482,21716
5065483,21473
5067486,21534
5069488,21713
5071488,21239
5073492,21763
5075493,21492
5077495,21532
5079495,21713
5081498,19925
5083502,20330
5085504,20060
5087507,20108
5089508,20334
5091509,19787
5093510,20290
5095513,20072
5097515,20104
5099518,20309
5101519,19815
5103520,20303
5105523,20104
5107523,20069
5109526,20217
5111529,19795
5113531,20305
5115534,20130
5117534,20059
5119534,20327
5121535,17846
5123536,18123
5125539,18054
5127541,17894
5129543,18110
5131543,17783
5133545,18053
5135546,18031
5137550,17804
5139553,18162
5141555,17058
5143556,17379
5145556,17272
5147559,17026
5149560,17399
5151561,17071
5153562,17312
5155562,17301
5157565,16963
5159566,17371
5161566,16521
5163566,16534
5165568,16637
5167569,16254
5169570,16654
5171570,16470
5173573,16549
5175573,16631
5177577,16220
5179580,16654
5181581,16168
5183583,16172
5185586,16322
5187586,15902
5189587,16286
5191587,16185
5193587,16071
5195588,16273
5197589,15994
5199593,16285
5201596,16530
5203598,16389
5205600,16688
5207604,16348
5209606,16605
5211608,16563
5213610,16337
5215614,16688
5217617,16323
5219617,16619
5221618,16589
5223618,16340
5225619,16663
5227620,16377
5229620,16588
5231620,16621
5233622,16190
5235624,16652
5237624,16475
5239625,16512
5241628,16617
5243630,16245
5245633,16648
5247633,16507
5249633,16506
5251636,16689
5253638,16235
5255639,16678
5257639,16572
5259639,16402
5261640,16705
5263641,16375
5265645,16627
5267645,16586
5269647,16349
5271649,16663
5273650,16408
5275653,16585
5277654,16569
5279655,16247
5281657,16642
5283659,16478
5285661,16557
5287664,16663
5289668,16246
5291670,16675
5293672,16503
5295672,16542
5297673,16672
5299676,16237
5301676,16631
5303677,16496
5305678,16495
5307678,16676
5309681,16229
5311683,16667
5313685,16510
5315686,16557
5317687,16675
5319691,16300
5321693,16629
5323694,16539
5325694,16455
5327694,16558
5329697,16346
5331699,16607
5333701,16599
5335704,16367
5337704,16715
5339706,16381
5341706,16593
5343710,16576
5345712,16307
5347715,16691
5349718,16427
5351720,16625
5353721,16641
5355721,16253
5357722,16671
5359725,16407
5361728,16506
5363729,16619
5365731,16260
5367734,16658
5369737,16504
5371739,16523
5373741,16651
5375742,16252
5377743,16689
5379745,16485
5381745,16902
5383746,17344
5385748,16965
5387749,17315
5389751,17217
5391754,17171
5393755,17377
5395757,16935
5397758,17367
5399761,17211
5401764,17486
5403765,17732
5405768,17277
5407772,17700
5409775,17598
5411775,17496
5413776,17752
5415778,17353
5417780,17714
5419782,17617
5421783,14771
5423783,14880
5425783,14563
5427786,14808
5429786,14743
5431788,14562
5433790,14841
5435793,14574
5437794,14823
5439797,14750
5441798,9130
5443799,8907
5445800,8767
5447800,8846
5449803,8894
5451805,8732
5453806,8876
5455808,8812
5457811,8850
5459814,8854
5461815,15080
5463817,15862
5465817,15758
5467819,15695
5469821,16072
5471823,15553
5473824,15916
5475827,15823
5477829,15695
5479831,15938
5481833,35048
5483833,36623
5485836,36824
5487838,36269
5489841,37071
5491843,36360
5493845,36881
5495847,36820
5497849,36380
5499852,37055
5501854,63065
5503855,62990
5505855,63115
5507856,63268
5509860,63108
5511861,62980
5513863,62908
5515865,62928
5517868,63023
5519869,63134
5521871,62986
5523872,63055
5525873,62951
5527875,63035
5529877,63015
5531877,63624
5533877,63097
5535877,63003
5537879,63095
5539882,62964
5541882,38235
5543886,35423
5545886,35586
5547888,35800
5549889,34868
5551891,35878
5553892,35423
5555892,35547
5557894,35845
5559897,35188
5561897,7318
5563897,5660
5565900,5744
5567903,5687
5569906,5659
5571906,5677
5573908,5633
5575911,5695
5577915,5661
5579917,5608
5581918,4003
5583920,3890
5585923,3909
5587925,3929
5589927,3886
5591928,3903
5593929,3891
5595930,3891
5597931,3912
5599932,3920
5601935,10725
5603936,11098
5605940,10955
5607941,11118
5609943,10994
5611945,11098
5613946,11115
5615948,10925
5617949,11151
5619952,11042
5621953,15798
5623954,16296
5625958,15876
5627958,16291
5629960,16182
5631961,16092
5633961,16301
5635962,15904
5637962,16232
5639962,16221
5641963,16349
5643963,16675
5645964,16361
5647965,16610
5649965,16605
5651966,16256
5653968,16675
5655972,16420
5657974,16535
5659974,16653
5661975,16245
5663977,16682
5665980,16463
5667983,16519
5669985,16628
5671987,16221
5673988,16682
5675988,16464
5677989,16517
5679993,16657
5681995,15529
5683996,15928
5685999,15820
5688002,15756
5690005,15919
5692006,15505
5694007,15906
5696007,15802
5698008,15605
5700009,15925
5702011,15936
5704012,16276
5706015,16209
5708016,16088
5710019,16287
5712023,15926
5714025,16275
5716026,16211
5718028,16076
5720030,16279
5722032,16006
5724036,16266
5726037,16175
5728040,16028
5730040,16290
5732043,15966
5734045,16260
5736048,16227
5738051,16043
5740053,16287
5742053,16349
5744053,16618
5746056,16598
5748057,16233
5750059,16657
5752059,16421
5754061,16523
5756061,16615
5758064,16277
5760066,16710
5762067,17129
5764070,17224
5766071,17332
5768071,16930
5770071,17361
5772073,17223
5774076,17164
5776076,17359
5778076,16925
5780079,17347
5782081,17245
5784081,17159
5786081,17395
5788084,16950
5790087,17361
5792089,17225
5794090,17143
5796092,17393
5798095,16972
5800098,17305
5802100,16581
5804102,16389
5806104,16669
5808108,16339
5810110,16597
5812112,16569
5814112,16359
5816113,16677
5818116,16337
5820119,16666
5822121,17621
5824121,17373
5826124,17772
5828127,17395
5830128,17684
5832129,17644
5834129,17337
5836129,17764
5838131,17455
5840131,17689
5842132,17687
5844133,17191
5846136,17744
5848137,17468
5850140,17688
5852143,17664
5854143,17290
5856146,17788
5858148,17478
5860150,17610
5862152,17709
5864153,17290
5866155,17743
5868159,17487
5870160,17610
5872164,17696
5874166,17281
5876168,17625
5878171,17525
5880173,17648
5882176,18081
5884179,17642
5886182,18115
5888184,17873
5890187,18000
5892189,18085
5894191,17708
5896194,18115
5898196,17861
5900196,17997
5902197,19097
5904199,18708
5906202,19222
5908203,18953
5910205,18969
5912205,19194
5914206,18714
5916206,19180
5918207,19022
5920209,19003
5922211,19523
5924211,19097
5926214,19540
5928215,19460
5930218,19246
5932222,19587
5934223,19098
5936225,19561
5938229,19415
5940233,19274
5942235,19916
5944238,19474
5946241,19921
5948244,19771
5950247,19714
5952247,19979
5954250,19426
5956251,19932
5958253,19803
5960256,19820
5962259,20305
5964261,19787
5966262,20303
5968264,20121
5970268,20085
5972269,20311
5974270,19811
5976271,20286
5978275,20219
5980276,20232
5982277,20994
5984280,20461
5986283,20968
5988286,20825
5990286,20772
5992288,20997
5994290,20475
5996293,21000
5998293,20859
6000296,20797
6002298,21016
6004300,20432
6006303,21060
6008307,20805
6010311,20764
6012313,20998
6014314,20461
6016315,21024
6018317,20799
6020318,20918
6022320,21709
6024324,21218
6026326,21748
6028329,21551
6030331,21503
6032333,21788
6034334,21223
6036337,21748
6038337,21563
6040340,21630
6042342,22431
6044344,21949
6046344,22458
6048347,22330
6050347,22211
6052349,22476
6054350,21910
6056350,22423
6058352,22364
6060355,22273
6062358,23199
6064361,22658
6066364,23205
6068365,23067
6070367,22851
6072368,23234
6074368,22783
6076371,23135
6078374,23049
6080377,23004
6082379,24324
6084380,23789
6086381,24160
6088385,24154
6090386,23861
6092390,24291
6094390,23777
6096392,24220
6098393,24202
6100395,23893
6102395,25056
6104395,24485
6106395,24933
6108398,24929
6110400,24465
6112401,25059
6114403,24503
6116404,24966
6118405,24957
6120408,24547
6122411,25418
6124414,24929
6126416,25310
6128418,25250
6130420,24878
6132421,25427
6134423,24940
6136425,25280
6138428,25295
6140428,25032
6142430,26848
6144431,26454
6146431,26671
6148432,26798
6150434,26235
6152436,26871
6154437,26412
6156438,26659
6158440,26762
6160443,26500
6162445,27638
6164445,27286
6166448,27408
6168451,27568
6170454,26954
6172457,27621
6174458,27169
6176462,27404
6178464,27500
6180464,27209
6182467,28316
6184470,27887
6186470,28257
6188471,28234
6190474,27664
6192475,28307
6194476,27836
6196478,28142
6198479,28245
6200482,27740
6202482,28637
6204483,28168
6206486,28433
6208487,28649
6210488,28011
6212489,28648
6214493,28272
6216496,28450
6218499,28626
6220501,28292
6222503,29440
6224505,28849
6226509,29276
6228512,29274
6230516,28453
6232518,29438
6234519,28887
6236519,29296
6238521,29294
6240523,28745
6242525,29445
6244525,28871
6246529,29294
6248533,29296
6250536,28813
6252538,29448
6254538,28807
6256540,29348
6258542,29254
6260545,28526
6262546,28738
6264548,28104
6266549,28635
6268550,28458
6270554,28150
6272557,28697
6274559,28037
6276561,28579
6278563,28469
6280563,27799
6282564,27640
6284566,26988
6286569,27622
6288570,27361
6290573,27165
6292575,27610
6294575,26981
6296578,27548
6298579,27450
6300581,26891
6302583,26893
6304584,26225
6306585,26749
6308586,26697
6310588,26369
6312591,26905
6314591,26245
6316595,26809
6318598,26708
6320601,25593
6322602,25148
6324606,24473
6326608,24999
6328610,24782
6330612,24585
6332615,24997
6334616,24457
6336620,25004
6338622,24867
6340626,24421
6342627,24298
6344630,23708
6346633,24298
6348636,24021
6350636,23990
6352636,24286
6354638,23685
6356642,24277
6358645,24039
6360648,23436
6362651,22818
6364652,22272
6366656,22864
6368660,22522
6370663,22652
6372666,22774
6374668,22273
6376672,22834
6378675,22464
6380678,22273
6382681,21698
6384683,21235
6386684,21818
6388684,21408
6390687,21671
6392689,21662
6394690,21281
6396692,21771
6398695,21374
6400697,21689
6402698,21676
6404700,21257
6406703,21823
6408705,21429
6410705,21580
6412705,21694
6414708,21214
6416709,21766
6418711,21476
6420714,21174
6422716,20990
6424717,20466
6426720,21040
6428722,20780
6430723,20807
6432726,20898
6434730,20489
6436731,20983
6438732,20817
6440734,20571
6442736,20667
6444737,20153
6446737,20696
6448738,20465
6450741,20437
6452742,20659
6454743,20143
6456745,20663
6458748,20461
6460750,20422
6462753,20753
6464754,20152
6466756,20649
6468757,20487
6470758,20289
6472760,20663
6474761,20259
6476761,20633
6478761,20569
6480762,20278
6482763,20630
6484763,20352
6486763,20572
6488764,20610
6490766,20186
6492767,20655
6494768,20346
6496772,20550
6498774,20577
6500776,19950
6502778,20307
6504778,20045
6506778,20158
6508781,20268
6510783,19789
6512784,20326
6514786,20076
6516788,20148
6518791,20292
6520794,19784
6522796,20331
6524797,20048
6526801,20188
6528804,20274
6530807,19797
6532809,20314
6534812,20042
6536812,20106
6538816,20269
6540818,20194
6542822,20990
6544824,20719
6546826,20845
6548827,20941
6550830,20494
6552832,21008
6554834,20717
6556834,20829
6558837,20966
6560839,20478
6562840,20984
6564841,20755
6566843,20831
6568846,20984
6570850,20477
6572852,21010
6574853,20695
6576854,20849
6578858,20961
6580859,20483
6582861,20998
6584862,20768
6586864,20530
6588864,20615
6590867,20143
6592870,20689
6594873,20394
6596876,20475
6598878,20515
6600880,20134
6602881,20645
6604881,20409
6606883,20482
6608883,20647
6610884,20162
6612885,20661
6614886,20447
6616888,20358
6618890,20625
6620894,20116
6622896,20669
6624897,20441
6626898,20706
6628900,21001
6630902,20523
6632903,21024
6634904,20833
6636904,20733
6638907,20964
6640911,20503
6642912,20971
6644912,20811
6646914,20736
6648916,20995
6650919,20528
6652920,20986
6654921,20867
6656921,20587
6658921,21028
6660924,20625
6662924,20875
6664925,20877
6666926,20538
6668927,21011
6670930,20699
6672930,20893
6674931,20968
6676934,20467
6678937,21014
6680939,20759
6682942,20837
6684945,20936
6686947,20162
6688950,20658
6690952,20335
6692953,20517
6694955,20582
6696957,20156
6698959,20713
6700961,20307
6702962,20521
6704963,20597
6706965,20502
6708968,21069
6710971,20685
6712971,20820
6714973,20968
6716973,20459
6718973,21018
6720973,20799
6722975,20773
6724976,21016
6726977,20533
6728981,20856
6730981,20898
6732982,20693
6734984,21006
6736985,20533
6738988,20964
6740990,20888
6742993,20499
6744994,21018
6746994,20252
6748994,20635
6750997,20547
6752999,20253
6755000,20655
6757002,20287
6759005,20568
6761006,20553
6763009,20200
6765012,20653
6767015,19996
6769018,20229
6771019,20243
6773022,19771
6775026,20313
6777028,19969
6779030,20215
6781033,20224
6783035,19870
6785037,20346
6787039,19290
6789039,19408
6791042,19504
6793044,19076
6795046,19579
6797048,19265
6799049,19410
6801052,19462
6803054,19087
6805054,19571
6807057,19675
6809060,19786
6811061,19936
6813061,19438
6815062,19909
6817066,19737
6819068,19679
6821071,19916
6823074,19402
6825074,19936
6827075,19731
6829078,19739
6831078,19940
6833079,19450
6835080,19939
6837082,19745
6839083,19709
6841085,19936
6843087,19447
6845089,19936
6847092,19745
6849094,19697
6851098,19920
6853099,19467
6855101,19936
6857101,19776
6859105,19735
6861107,19948
6863110,19486
6865112,19920
6867115,19801
6869116,19607
6871118,19928
6873119,19518
6875120,19887
6877122,19803
6879124,19605
6881125,19977
6883125,19579
6885125,19868
6887128,19870
6889131,19483
6891133,19968
6893134,19619
6895136,19857
6897139,19921
6899142,19479
6901146,19967
6903148,19617
6905148,19804
6907151,21599
6909155,21289
6911159,21787
6913160,21335
6915162,21579
6917164,21675
6919167,21242
6921168,21788
6923169,21393
6925172,21638
6927173,21689
6929173,21241
6931175,21800
6933176,21478
6935177,21594
6937177,21708
6939179,21224
6941179,21754
6943179,21390
6945180,21515
6947183,22077
6949184,21565
6951184,22133
6953186,21894
6955189,21921
6957192,22109
6959195,21573
6961198,22115
6963201,21865
6965202,21927
6967203,21345
6969203,20825
6971205,21385
6973207,21126
6975208,21120
6977211,21395
6979214,20856
6981217,21393
6983219,21105
6985220,21166
6987220,21742
6989224,21225
6991227,21758
6993227,21514
6995227,21501
6997230,21732
6999232,21243
7001233,21758
7003234,21534
7005234,21517
7007234,22786
7009235,22312
7011238,22761
7013240,22640
7015240,22457
7017244,22838
7019248,22282
7021250,22836
7023253,22609
7025253,22440
7027255,24949
7029256,24475
7031259,24945
7033261,24866
7035262,24536
7037266,25033
7039268,24394
7041270,24993
7043273,24761
7045275,24673
7047275,27167
7049279,26628
7051283,27211
7053284,26953
7055286,26876
7057286,27166
7059288,26578
7061289,27153
7063290,27002
7065291,26778
7067294,26572
7069296,25861
7071299,26447
7073301,26213
7075302,26105
7077304,26481
7079308,25848
7081311,26472
7083311,26233
7085313,26046
7087314,24347
7089317,23702
7091319,24278
7093321,24036
7095322,23953
7097324,24258
7099327,23657
7101331,24303
7103332,24035
7105333,24022
7107334,24278
7109337,23688
7111337,24246
7113337,24054
7115339,23994
7117340,24274
7119341,23705
7121344,24283
7123344,24100
7125346,23850
7127348,21836
7129350,21462
7131352,21682
7133355,21499
7135356,21417
7137358,21748
7139362,21237
7141365,21750
7143366,21521
7145368,21439
7147370,20663
7149371,20153
7151372,20633
7153372,20513
7155374,20333
7157374,20665
7159377,20215
7161380,20620
7163381,20522
7165403,20449
7167407,19972
7169410,19414
7171410,19941
7173411,19615
7175414,19752
7177416,19896
7179418,19434
7181419,19861
7183420,19721
7185423,19731
7187424,19557
7189427,19043
7191429,19573
7193431,19346
7195434,19378
7197434,19527
7199436,18989
7201437,19574
7203438,19370
7205441,19378
7207443,19929
7209446,19428
7211447,19920
7213449,19625
7215450,19668
7217452,19937
7219455,19463
7221456,19889
7223458,19728
7225460,19643
7227462,19957
7229464,19492
7231466,19936
7233467,19811
7235468,19615
7237470,19937
7239473,19479
7241474,19922
7243475,19847
7245476,19612
7247478,19941
7249478,19523
7251481,19914
7253481,19829
7255481,19422
7257481,19960
7259484,19572
7261487,19846
7263488,19924
7265488,19455
7267491,19958
7269494,19640
7271495,19849
7273497,19878
7275501,19466
7277503,19932
7279506,19669
7281506,19803
7283507,20008
7285510,19425
7287512,19949
7289514,19631
7291515,19799
7293517,19876
7295520,19450
7297523,19986
7299524,19666
7301526,19807
7303528,19898
7305531,19442
7307533,19932
7309536,19667
7311538,19794
7313541,19914
7315544,19522
7317544,19732
7319546,19631
7321547,19831
7323548,19900
7325549,19458
7327552,19945
7329555,19648
7331557,19845
7333557,19885
7335558,19448
7337558,19962
7339561,19656
7341564,19846
7343565,19865
7345568,19495
7347571,19942
7349574,19628
7351577,19853
7353579,19859
7355582,19512
7357584,19946
7359586,19603
7361588,19848
7363590,19863
7365592,19456
7367595,19961
7369595,19625
7371597,19824
7373599,19898
7375600,19472
7377600,19980
7379601,19623
7381602,19806
7383604,19948
7385607,19523
7387607,20661
7389610,20422
7391614,20514
7393618,20603
7395621,20146
7397622,20667
7399625,20423
7401628,20537
7403628,20584
7405631,20316
7407633,21418
7409634,21141
7411634,21216
7413637,21176
7415637,20843
7417639,21387
7419643,21145
7421647,21184
7423649,21321
7425653,19540
7427656,17850
7429657,17544
7431657,17554
7433659,17724
7435661,17291
7437662,17716
7439665,17536
7441667,17510
7443668,17714
7445670,14811
7447673,10869
7449676,10793
7451676,10675
7453676,10793
7455679,10580
7457681,10745
7459684,10694
7461685,10641
7463686,10796
7465689,13516
7467691,18965
7469694,19100
7471697,18779
7473698,19220
7475700,18867
7477700,19101
7479702,19117
7481703,18740
7483703,19206
7485705,27158
7487707,43757
7489709,44908
7491710,44209
7493713,44909
7495715,44561
7497715,44390
7499719,44951
7501720,44144
7503723,44995
7505723,57461
7507726,62950
7509729,62817
7511731,62931
7513734,62931
7515734,62940
7517737,62964
7519739,62915
7521741,62776
7523741,62694
7525741,62918
7527744,63048
7529746,62869
7531748,62857
7533750,62899
7535753,62842
7537756,62930
7539759,62952
7541762,63149
7543764,62942
7545767,62870
7547767,43728
7549770,43958
7551773,43264
7553775,43506
7555777,43801
7557777,43032
7559777,43920
7561779,43254
7563780,43463
7565782,28292
7567785,7486
7569788,6946
7571790,6847
7573791,6926
7575792,6910
7577792,6856
7579793,6898
7581794,6847
7583794,6888
7585795,5643
7587798,4367
7589800,4405
7591801,4368
7593803,4369
7595806,4399
7597810,4351
7599812,4406
7601815,4363
7603817,4366
7605819,8646
7607823,12993
7609824,13281
7611825,13321
7613826,13006
7615826,13368
7617826,13221
7619826,13055
7621830,13322
7623831,13041
7625831,16043
7627831,19379
7629833,19121
7631836,19545
7633836,19192
7635836,19466
7637837,19472
7639839,19141
7641839,19543
7643841,19280
7645843,19575
7647845,19910
7649848,19447
7651851,19938
7653855,19643
7655857,19824
7657859,19865
7666415,19732
7668415,19680
7670418,19982
7672419,19481
7674422,19942
7676425,19752
7678428,19467
7680430,19954
7682432,19467
7684435,19931
7686438,19115
7688438,18856
7690438,19177
7692440,18787
7694440,19099
7696440,19107
7698443,18772
7700447,19177
7702449,18711
7704452,19087
7706453,19384
7708453,19065
7710454,19552
7712454,19316
7714457,19334
7716459,19510
7718461,19021
7720461,19510
7722461,19299
7724464,19347
7726466,19527
7728469,19045
7730469,19569
7732471,19351
7734473,19384
7736474,19532
7738478,19054
7740481,19565
7742484,19337
7744485,19362
7746485,20046
7748489,19464
7750493,19922
7752495,19780
7754497,19656
7756498,19930
7758498,19475
7760500,19925
7762501,19757
7764504,19634
7766506,20540
7768507,20166
7770508,20605
7772508,20551
7774511,20209
7776515,20653
7778518,20218
7780521,20617
7782522,20513
7784525,20337
7786528,20660
7788528,20233
7790532,20610
7792533,20535
7794535,20318
7796537,20675
7798537,20248
7800539,20599
7802542,20531
7804543,20258
7806546,20077
7808547,19587
7810551,19882
7812553,19847
7814555,19509
7816557,19964
7818560,19577
7820560,19854
7822563,19827
7824564,19511
7826567,21136
7828570,21036
7830573,21267
7832575,21313
7834576,20881
7836579,21415
7838582,21010
7840585,21243
7842587,21255
7844589,20894
7846591,21082
7848591,20617
7850595,20953
7852597,20912
7854599,20553
7856602,21035
7858606,20639
7860609,20914
7862612,20915
7864612,20513
7866614,21363
7868617,21036
7870619,21247
7872622,21301
7874623,20860
7876625,21393
7878626,21055
7880629,21277
7882632,21338
7884633,20854
7886636,21710
7888638,21423
7890641,21597
7892643,21694
7894644,21241
7896645,21800
7898646,21470
7900650,21607
7902650,21754
7904652,21224
7906656,22710
7908659,22504
7910662,22630
7912663,22760
7914665,22260
7916665,22814
7918667,22498
7920668,22678
7922671,22730
7924672,22272
7926675,23492
7928677,23229
7930677,23418
7932679,23478
7934681,23015
7936683,23853
7938683,23208
7940686,23425
7942688,23544
7944690,23010
7946693,23885
7948694,23581
7950694,23614
7952696,23939
7954696,23348
7956697,23961
7958698,23637
7960700,23698
7962701,23874
7964701,23342
7966704,24266
7968706,24019
7970707,23957
7972709,24174
7974711,23639
7976714,24276
7978714,24068
7980715,23955
7982716,24287
7984717,23713
7986717,24962
7988718,25220
7990721,24999
7992722,25407
7994726,24784
7996727,25356
7998727,25208
8000727,24889
8002728,25407
8004729,24831
8006732,25291
8008732,25218
8010735,24909
8012736,25411
8014738,24826
8016738,25282
8018740,25246
8020741,24843
8022743,25433
8024747,24953
8026751,26277
8028755,26313
8030757,25926
8032758,26490
8034761,25896
8036765,26398
8038766,26324
8040769,25968
8042771,26508
8044773,25894
8046774,27093
8048775,27038
8050777,26686
8052778,27181
8054780,26605
8056783,27143
8058784,27085
8060786,26626
8062787,27223
8064791,26695
8066793,28118
8068793,28265
8070796,27715
8072800,28300
8074800,27710
8076804,28154
8078807,28151
8080809,27702
8082809,28302
8084811,27710
8086812,29158
8088813,29276
8090815,28789
8092818,29423
8094819,28845
8096823,29316
8098825,29232
8100827,28843
8102830,29440
8104830,28797
8106834,29926
8108835,29844
8110837,29461
8112838,30169
8114838,29471
8116841,30014
8118842,29926
8120843,29509
8122844,30111
8124844,29537
8126847,30287
8128847,30345
8130851,29815
8132852,30497
8134855,29923
8136855,30307
8138857,30315
8140860,29840
8142861,30468
8144862,29898
8146863,31953
8148863,32214
8150863,31576
8152863,32310
8154863,31743
8156863,32001
8158863,32239
8160866,31577
8162867,32337
8164867,31808
8166869,33027
8168871,33281
8170874,32635
8172876,33432
8174877,32939
8176880,33125
8178883,33291
8180886,32712
8182888,33432
8184890,32821
8186892,34117
8188894,34334
8190896,33731
8192899,34496
8194900,33847
8196902,34265
8198905,34333
8200908,33755
8202910,34491
8204911,33872
8206913,34634
8208916,34676
8210918,34123
8212919,34914
8214920,34180
8216923,34674
8218924,34639
8220926,34168
8222928,34859
8224930,34150
8226930,35371
8228933,35314
8230935,34906
8232935,35579
8234936,34889
8236939,35425
8238941,35272
8240943,34887
8242945,35547
8244946,34842
8246946,35706
8248949,35493
8250951,35095
8252951,35971
8254952,35203
8256952,35762
8258954,35722
8260955,35301
8262956,35918
8264959,34944
8266960,34835
8268962,34587
8270963,34146
8272964,34874
8274964,34176
8276964,34569
8278966,34639
8280970,34206
8282972,34863
8284973,34196
8286973,33318
8288977,33173
8290980,32756
8292982,33408
8294983,32687
8296986,33268
8298988,33197
8300991,32748
8302991,33454
8304992,32727
8306995,32294
8308995,32095
8310998,31684
8313000,32288
8315001,31610
8317001,32134
8319003,32094
8321006,31668
8323007,32329
8325008,31574
8327011,30144
8329012,29873
8331015,29552
8333016,30102
8335016,29410
8337019,30060
8339022,29699
8341025,29769
8343027,29976
8345028,29356
8347031,29063
8349034,28793
8351037,28697
8353039,29026
8355041,28335
8357041,28995
8359044,28813
8361046,28518
8363047,29048
8365049,28418
8367049,27588
8369051,27382
8371055,26795
8373056,27682
8375059,26971
8377062,27546
8379063,27382
8381066,27095
8383068,27590
8385068,26988
8387071,26151
8389074,25926
8391076,25628
8393078,26118
8395079,25557
8397080,26025
8399082,25946
8401086,25590
8403086,26107
8405086,25531
8407087,26031
8409090,25949
8411090,25578
8413092,26127
8415093,25635
8417094,25996
8419098,25918
8421099,25603
8423101,26109
8425101,25634
8427101,25307
8429104,25266
8431107,24798
8433108,25445
8435109,24951
8437112,25301
8439115,25254
8441117,24865
8443119,25424
8445120,24934
8447124,24903
8449127,24951
8451128,24456
8453129,25040
8455130,24598
8457131,24906
8459134,24905
8461136,24447
8463139,24902
8465141,24571
8467144,24864
8469144,24873
8471146,24423
8473146,25040
8475148,24551
8477148,24861
8479149,24937
8481151,24388
8483153,25036
8485154,24617
8487155,24851
8489156,24929
8491157,24423
8493158,25071
8495159,24695
8497161,24867
8499162,24941
8501165,24428
8503168,25014
8505168,24667
8507168,24136
8509168,24232
8511170,23697
8513172,24317
8515174,23881
8517175,24133
8519175,24238
8521175,23723
8523176,24274
8525177,23995
8527178,24098
8529179,24070
8531181,23637
8533181,24260
8535182,24060
8537183,23991
8539186,24243
8541188,23693
8543189,24310
8545189,24028
8547189,24981
8549191,25360
8551193,24757
8553196,25361
8555196,25132
8557198,25054
8559200,25408
8561202,24763
8563203,25371
8565205,25102
8567207,25067
8569210,25347
8571212,24773
8573214,25411
8575215,25139
8577218,25090
8579221,25340
8581223,24747
8583226,25377
8585227,25059
8587229,24871
8589232,24939
8591233,24368
8593233,24973
8595234,24713
8597235,24770
8599237,24950
8601241,24381
8603242,25017
8605242,24693
8607245,24831
8609246,24995
8611248,24357
8613249,25015
8615250,24686
8617252,24779
8619255,24987
8621258,24405
8623260,25122
8625262,24651
8627266,25126
8629268,25345
8631271,24792
8633272,25360
8635274,25047
8637277,25163
8639277,25339
8641280,24745
8643281,25425
8645285,25227
8647288,25134
8649288,25342
8651290,24747
8653292,25366
8655293,25069
8657295,25106
8659297,25355
8661299,24653
8663301,25411
8665303,25108
8667304,25104
8669305,25377
8671305,24793
8673305,25377
8675308,25182
8677310,24968
8679313,25421
8681315,24799
8683317,25340
8685317,25175
8687319,24984
8689321,25042
8691324,24422
8693324,25022
8695326,24787
8697327,24647
8699327,25008
8701328,24399
8703328,24945
8705331,24891
8707332,24475
8709332,25375
8711334,24826
8713334,25327
8715334,25256
8717335,24854
8719337,25417
8721340,24894
8723341,25284
8725344,25246
8727344,24789
8729347,25405
8731349,24890
8733349,25290
8735349,25274
8737352,24841
8739353,25317
8741354,24902
8743356,25266
8745357,25280
8747360,24821
8749362,25108
8751365,24526
8753366,24835
8755370,24871
8757371,24462
8759372,25019
8761375,24550
8763377,24859
8765398,24819
8767400,24613
8769400,24363
8771402,23705
8773405,24216
8775408,24104
8777411,23912
8779413,24266
8781414,23737
8783416,24270
8785420,24058
8787424,24020
8789424,23633
8791425,23009
8793427,23540
8795429,23408
8797429,23239
8799430,23573
8801430,23037
8803430,23489
8805463,23163
8807466,23460
8809469,23831
8811470,23419
8813471,23932
8815471,23521
8817475,23823
8819477,23844
8821477,23372
8823478,23913
8825479,23574
8827480,23738
8829482,23893
8831484,23360
8833486,23965
8835486,23586
8837488,23729
8839491,23941
8841494,23353
8843495,23933
8845497,23651
8847498,23737
8849499,23893
8851501,23332
8853502,23925
8855502,23741
8857505,23648
8859508,23877
8861509,23387
8863511,23907
8865514,23652
8867514,23618
8869517,23935
8871519,23419
8873521,23909
8875524,23978
8877527,23721
8879530,23878
8881532,23311
8883532,23911
8885535,23655
8887539,23698
8889539,23893
8891542,23332
8893545,23961
8895546,23673
8897550,23733
8899553,23907
8901553,23309
8903554,23953
8905556,23643
8907559,23695
8909560,19872
8911563,19081
8913565,19532
8915565,19318
8917568,19362
8919571,19486
8921572,19089
8923575,19568
8925576,19362
8927579,19352
8929581,19559
8931582,19042
8933583,19489
8935584,19360
8937587,19342
8939590,19544
8941592,19045
8943593,19555
8945595,19386
8947597,19453
8949600,19572
8951601,19068
8953602,19563
8955603,19448
8957603,19178
8959603,19503
8961606,19148
8963608,19463
8965608,19414
8967610,19105
8969611,19235
8971614,18833
8973617,19068
8975617,19129
8977620,18698
8979620,19141
8981621,18933
8983625,18998
8985625,19089
8987625,18658
8989625,19465
8991627,19348
8993628,19317
8995628,19552
8997629,19041
8999629,19505
9001629,19392
9003630,19199
9005634,19539
9007637,19088
9009639,20172
9011640,20082
9013642,19944
9015644,20290
9017647,19810
9019647,19994
9021649,20134
9030531,22108
9032531,21888
9034534,21860
9036534,22061
9038536,21555
9040537,22091
9042537,21952
9044540,21826
9046541,22104
9048542,22418
9050542,23873
9052543,23789
9054547,23625
9056549,23953
9058553,23357
9060553,23902
9062556,23674
9064558,23616
9066561,23943
9068562,23003
9070565,23187
9072568,23021
9074569,22866
9076569,23173
9078569,22740
9080573,23069
9082574,23040
9084576,22831
9086579,23193
9088580,21710
9090582,21343
9092583,21237
9094584,21006
9096587,21391
9098587,21060
9100587,21319
9102587,21224
9104588,20918
9106590,21367
9108593,20992
9110593,21290
9112593,21310
9114594,20916
9116598,21414
9118600,21000
9120601,21298
9122604,21310
9124606,20904
9126608,21395
9128611,20046
9130613,19487
9132613,19478
9134616,19123
9136616,19595
9138620,19233
9140620,19479
9142621,19475
9144622,19133
9146625,19571
9148627,18680
9150630,18282
9152633,18332
9154634,18077
9156636,18471
9158639,18198
9160641,18375
9162642,18384
9164643,18061
9166644,18506
9168645,17849
9170645,17582
9172645,17712
9174646,17277
9176650,17756
9178653,17520
9180654,17598
9182656,17700
9184658,17279
9186661,17758
9188664,17333
9190666,17204
9192666,17301
9194667,16901
9196669,17361
9198671,17189
9200674,17179
9202675,17382
9204675,16938
9206676,17314
9208679,17411
9210682,17465
9212686,17759
9214688,17263
9216691,17774
9218693,17589
9220695,17465
9222696,17782
9224696,17388
9226699,17688
9228699,17633
9230701,17461
9232703,17760
9234704,17439
9236707,17700
9238711,17634
9240711,17451
9242713,17755
9244714,17459
9246714,17688
9248714,17677
9250716,17252
9252716,17781
9254719,17473
9256720,17604
9258722,17685
9260725,17221
9262726,17752
9264726,17528
9266729,17628
9268731,17735
9270733,17301
9272734,17752
9274737,17402
9276737,17533
9278737,17744
9280739,17304
9282739,17760
9284742,17572
9286742,17442
9288742,17731
9290745,17377
9292746,17694
9294748,17650
9296749,17375
9298751,17754
9300754,17417
9302755,17696
9304755,17652
9306758,17388
9308758,17768
9310759,17459
9312760,17645
9314764,17647
9316767,17373
9318771,17784
9320772,17415
9322772,17650
9324772,17696
9326774,17373
9328775,17774
9330777,17523
9332777,17612
9334779,17689
9336780,17300
9338781,17737
9340784,17506
9342785,17640
9344786,17716
9346789,17271
9348792,17770
9350795,17529
9352795,17586
9354796,17552
9356799,17309
9358799,17727
9360801,17564
9362801,17536
9364802,17755
9366806,17307
9368810,17740
9370813,17524
9372815,17583
9374817,17745
9376818,17313
9378822,17724
9380823,17558
9382823,17485
9384825,17730
9386825,17308
9388828,18186
9390828,18352
9392830,18218
9394830,18479
9396830,18130
9398831,18425
9400831,18378
9402833,18107
9404835,18495
9406835,18145
9408836,18939
9410839,19101
9412842,18750
9414843,19216
9416846,18841
9418849,19143
9420850,19101
9422850,18819
9424853,19278
9426853,18962
9428856,16495
9430859,15493
9432860,15214
9434862,15538
9436865,15307
9438868,15481
9440872,15477
9442874,15172
9444876,15566
9446877,15325
9448879,11228
9450883,9687
9452886,9509
9454888,9653
9456889,9530
9458891,9625
9460893,9637
9462895,9430
9464896,9647
9466900,9494
9468903,14795
9470905,16932
9472907,16571
9474908,17010
9476911,16796
9478913,16854
9480916,17002
9482918,16590
9484919,16998
9486921,16826
9488923,32019
9490926,39399
9492928,38750
9494930,39463
9496932,39174
9498932,39040
9500935,39437
9502938,38700
9504939,39511
9506942,38952
9508943,62914
9510945,62932
9512946,62821
9514946,62974
9516949,62979
9518952,62891
9520956,62916
9522959,62956
9524960,62868
9526963,62942
9528966,62950
9530970,62974
9532971,62898
9534972,62922
9536974,63006
9538977,62928
9540979,62856
9542980,63025
9544982,62912
9546986,62902
9548989,47837
9550989,38503
9552992,38381
9554992,37710
9556995,38512
9558996,37786
9560998,38218
9563000,38323
9565001,37954
9567002,38577
9569004,13172
9571007,6287
9573010,6109
9575011,6095
9577013,6136
9579014,6021
9581017,6130
9583017,6064
9585017,6031
9587017,6071
9589017,4383
9591019,3922
9593019,3933
9595019,3910
9597021,3942
9599022,3885
9601025,3907
9603026,3918
9605028,3885
9607028,3944
9609031,9963
9611034,11541
9613035,11908
9615036,11725
9617036,11770
9619040,11828
9621043,11559
9623046,11877
9625046,11744
9627049,11764
9629051,15960
9631054,16903
9633057,17311
9635059,17239
9637062,17098
9639065,17395
9641068,16918
9643069,17300
9645069,17255
9647073,17055
9649075,17662
9651077,17400
9653078,17672
9655079,17644
9657080,17423
9659082,17729
9661082,17415
9663082,17686
9665083,17696
9667085,17295
9669086,17740
9671088,17524
9673090,17607
9675090,17704
9677092,17304
9679094,17768
9681097,17496
9683097,17584
9685099,17726
9687102,17286
9689105,17139
9691107,16798
9693107,16834
9695107,16963
9697109,16573
9699112,16994
9701114,16830
9703116,16824
9705118,17024
9707118,16581
9709121,17289
9711121,17227
9713123,17086
9715124,17372
9717126,16997
9719128,17368
9721130,17265
9723130,17092
9725131,17388
9727133,17018
9729134,17315
9731137,17248
9733139,17044
9735139,17355
9737139,17080
9739139,17192
9741141,17307
9743143,16984
9745144,17363
9747145,17087
9749147,17570
9751150,17670
9753151,17336
9755153,17770
9757156,17478
9759157,17656
9761159,17692
9763161,17307
9765164,17753
9767166,17476
9769170,18204
9771173,18445
9773176,18005
9775178,18548
9777181,18194
9779184,18360
9781187,18382
9783189,18019
9785191,18486
9787191,18203
9789195,18398
9791198,18422
9793198,18055
9795199,18490
9797202,18210
9799205,18360
9801206,18459
9803208,17998
9805208,18500
9807209,18269
9809212,17706
9811214,17725
9813216,17257
9815217,17732
9817219,17568
9819221,17551
9821223,17736
9823223,17295
9825223,17742
9827225,17369
9829227,18743
9831228,19188
9833228,18713
9835231,19178
9837233,19025
9839235,18951
9841236,19159
9843237,18689
9845237,19111
9847240,18981
9849241,18636
9851242,18824
9853244,18378
9855247,18802
9857248,18594
9859252,18666
9861254,18847
9863256,18348
9865256,19011
9867259,18640
9869260,18946
9871263,19223
9873263,18716
9875266,19188
9877269,18999
9879270,18987
9881271,19137
9883272,18730
9885273,19147
9887275,19006
9889278,19267
9891278,19549
9893281,19099
9895281,19541
9897282,19376
9899285,19266
9901286,19572
9903288,19065
9905291,19553
9907291,19406
9909295,19912
9911295,20286
9913297,19827
9915298,20302
9917300,20121
9919301,19973
9921303,20317
9923306,19816
9925308,20276
9927310,20128
9929313,20540
9931316,21009
9933319,20539
9935321,20976
9937321,20863
9939324,20648
9941325,21026
9943329,20561
9945331,20970
9947333,20916
9949336,20916
9951338,21413
9953341,20956
9955344,21305
9957346,21282
9959347,20930
9961348,21373
9963348,20949
9965351,21298
9967354,21281
9969355,20980
9971358,21415
9973360,20970
9975362,21299
9977363,21239
9979367,21029
9981368,21386
9983369,20955
9985371,21299
9987373,21249
9989373,21855
9991375,22455
9993379,22033
9995400,22446
9997403,22209
9999404,22251
10001404,22468
10003405,21925
10005411,22490
10007415,22207
10009417,22272
10011419,22424
10013421,21901
10015424,22506
10017425,22173
10019425,22295
10021425,22409
10023425,21906
10025426,22492
10027429,22247
10029431,22896
10031432,23142
10033434,22590
10035436,23208
10037438,22925
10039440,23051
10041441,23169
10043443,22645
10045447,23208
10047450,22879
10049453,23707
10051454,23897
10053455,23384
10055457,23923
10057458,23612
10059458,23603
10061458,23865
10063459,23372
10065461,23946
10067461,23625
10069464,24705
10071466,25046
10073469,24412
10075471,25026
10077471,24655
10079473,24829
10081476,24968
10083479,24592
10085482,25028
10087482,24640
10089485,25818
10091487,26009
10093489,25481
10095492,26151
10097495,25607
10099498,25962
10101500,25943
10103502,25511
10105502,26097
10107502,25598
10109502,26590
10111505,26728
10113507,26291
10115508,26849
10117511,26297
10119511,26745
10121514,26706
10123516,26309
10125516,26876
10127517,26273
10129520,27081
10131522,27063
10133523,26670
10135524,27219
10137526,26708
10139529,27081
10141530,27093
10143531,26634
10145531,27274
10147531,26676
10149533,28405
10151536,28499
10153539,28060
10155539,28541
10157540,28053
10159540,28509
10161544,28479
10163546,28132
10165546,28673
10167549,28040
10169549,29198
10171549,29308
10173552,28775
10175556,29452
10177557,28853
10179560,29291
10181563,29262
10183565,28799
10185566,29432
10187570,28747
10189573,30323
10191575,30199
10193577,29939
10195581,30469
10197581,29778
10199584,30405
10201585,30228
10203587,30006
10205587,30501
10207590,29763
10209594,30768
10211596,30578
10213599,30474
10215602,30806
10217605,30145
10219608,30792
10221609,30538
10223610,30445
10225610,30818
10227613,30127
10229613,31151
10231615,30814
10233617,30844
10235620,31166
10237623,30476
10239624,31159
10241627,30816
10243628,30878
10245631,31165
10247631,30475
10249634,31546
10251636,31130
10253638,31287
10255640,31519
10257641,30866
10259641,31234
10261643,31194
10263645,31332
10265646,31421
10267650,30882
10269653,30900
10271656,30297
10273658,30772
10275659,30715
10277662,30175
10279665,30858
10281667,30249
10283668,30683
10285672,30684
10287676,30231
10289679,29546
10291682,28745
10293682,29276
10295682,29216
10297684,28856
10299688,29388
10301689,28787
10303690,29304
10305694,29234
10307697,29004
10309700,28679
10311700,28005
10313703,28585
10315703,28469
10317705,28077
10319705,28708
10321707,28008
10323709,28557
10325709,28443
10327713,28173
10329713,26877
10331714,26297
10333716,26813
10335719,26608
10337720,26419
10339723,26856
10341725,26189
10343726,26816
10345727,26634
10347730,26410
10349734,25813
10351736,25110
10353738,25718
10355742,25543
10357743,25355
10359747,25797
10361749,25152
10363751,25671
10365754,25575
10367754,25281
10369757,24395
10371761,23710
10373763,24239
10375764,23987
10377764,23829
10379767,24268
10381769,23778
10383771,24209
10385775,24103
10387777,23937
10389780,23277
10391782,22697
10393784,23143
10395784,23048
10397787,22734
10399789,23157
10401792,22663
10403794,23111
10405794,23040
10407796,22738
10409799,23223
10411803,22738
10413805,23114
10415808,23055
10417811,22775
10419811,23177
10421813,22736
10423814,23101
10425815,23054
10427816,22658
10429817,22534
10431820,22147
10433822,22366
10435823,22380
10437823,21967
10439825,22490
10441827,22095
10443829,22338
10445832,22389
10447834,21913
10449834,22177
10451837,21744
10453839,22012
10455842,22039
10457845,21599
10459846,22148
10461848,21804
10463850,21987
10465850,22107
10467851,21517
10469851,22097
10471855,21804
10473857,21984
10475857,22100
10477859,21564
10479863,22155
10481864,21823
10483866,21931
10485866,22087
10487867,21598
10489870,22129
10491872,21788
10493874,21896
10495874,22115
10497878,21545
10499882,22131
10501885,21804
10503888,21954
10505888,22027
10507892,21579
10509896,21359
10511896,21097
10513897,21238
10515898,21317
10517901,20835
10519901,21371
10521905,21024
10523906,21231
10525907,21337
10527909,20889
10529912,21421
10531915,21038
10533915,21191
10535918,21329
10537921,20827
10539922,21559
10541922,21116
10543923,21217
10545923,21310
10547926,20857
10549929,22436
10551930,22164
10553930,22288
10555932,22445
10557935,21904
10559937,22510
10561940,22190
10563942,22289
10565942,22454
10567946,21856
10569947,22498
10571950,22198
10573952,22241
10575955,22420
10577955,21929
10579955,22467
10581958,22186
10583959,22250
10585959,22426
10587960,21940
10589963,21924
10591966,21904
10593967,21886
10595970,22120
10597972,21553
10599975,22111
10601976,21908
10603977,21834
10605979,22097
10607983,21571
10609986,22155
10611989,21907
10613992,21993
10615993,22045
10617996,21575
10620000,22107
10622002,21931
10624004,21830
10626006,22103
10628006,21600
10630009,22420
10632009,22307
10634011,22163
10636012,22482
10638014,21913
10640014,22430
10642017,22277
10644019,22175
10646019,22490
10648023,21939
10650027,22452
10652029,22320
10654030,22136
10656030,22490
10658030,22035
10660032,22402
10662032,22380
10664035,21925
10666035,22462
10668036,22031
10670038,22304
10672039,22337
10674041,21939
10676041,22486
10678043,22097
10680046,22301
10682049,22396
10684051,21932
10686053,22476
10688057,22089
10690060,21999
10692060,22035
10694060,21579
10696061,22187
10698064,21789
10700068,21969
10702070,22025
10704071,21575
10706072,22127
10708074,21839
10710078,22301
10712081,22402
10714084,21921
10716085,22500
10718089,22173
10720089,22353
10722090,22416
10724091,21935
10726093,22473
10728094,22163
10730096,22268
10732097,22458
10734098,21906
10736100,22489
10738103,22228
10740107,22218
10742107,22453
10744110,21934
10746113,22464
10748113,22175
10750114,21913
10752115,22102
10754115,21553
10756119,22132
10758121,21863
10760123,21887
10762126,22095
10764129,21564
10766133,22134
10768136,21722
10770140,21204
10772140,21373
10774143,20839
10776143,21413
10778143,21180
10780147,21156
10782149,21365
10784150,20916
10786152,21347
10788156,21164
10790159,21159
10792162,21372
10794165,20808
10796165,21010
10798167,20807
10800168,20753
10802168,21017
10804168,20526
10806168,20994
10808170,20904
10810173,20677
10812175,21013
10814176,20551
10816178,21303
10818182,21219
10820185,21057
10822187,21407
10824187,20900
10826189,21406
10828192,21209
10830195,21087
10832196,21353
10834196,20812
10836200,21351
10838202,21165
10840204,21061
10842205,21403
10844209,20857
10846211,21389
10848215,21218
10850217,21088
10852219,21361
10854220,20910
10856222,21358
10858224,21271
10860227,21054
10862227,21424
10864228,20937
10866230,21330
10868232,21257
10870235,20896
10872236,21492
10874239,20976
10876239,21311
10878243,21262
10880246,20938
10882246,21406
10884247,21015
10886248,21290
10888251,21281
10890252,20904
10892254,21415
10894256,20999
10896256,21330
10898259,21309
10900259,20833
10902260,21398
10904263,21092
10906266,21290
10908266,21345
10910268,20881
10912270,21406
10914271,20522
10916273,17772
10918273,17693
10920274,17303
10922275,17751
10924276,17493
10926279,17667
10928279,17695
10930281,17291
10932283,17728
10934283,17540
10936285,17562
10938288,17696
10940290,17291
10942290,17742
10944292,17561
10946294,17568
10948296,17732
10950298,17237
10952299,17706
10954301,17624
10956303,17903
10958304,18086
10960308,17648
10962310,18137
10964310,17977
10966312,17899
10968314,18125
10970317,17672
10972318,18105
10974320,17847
10976321,17143
10978323,17363
10980324,17027
10982325,17298
10984325,17269
10986328,17071
10988331,17377
10990333,17078
10992334,17279
10994337,17333
10996338,17331
10998341,17780
11000343,17470
11002346,17644
11004347,17709
11006348,17301
11008349,17760
11010352,17505
11012352,17607
11014354,17761
11016357,18018
11018360,18506
11020361,18185
11022363,18400
11024365,18430
11026368,17966
11028371,18490
11030373,18245
11032375,18388
11034377,18644
11036380,19753
11038383,20347
11040387,20003
11042389,20174
11044390,20249
11046391,19827
11048393,20290
11050395,19976
11052397,20177
11054398,20449
11056401,21180
11058403,21794
11060405,21493
11062406,21588
11064409,21710
11066411,21247
11068413,21770
11070415,21430
11072417,21642
11074419,21620
11076419,20882
11078421,21349
11080421,21085
11082424,21208
11084426,21330
11086426,20844
11088429,21415
11090432,21110
11092433,21208
11094434,20819
11096437,19111
11098438,19580
11100441,19304
11102443,19390
11104445,19527
11106445,19065
11108448,19556
11110449,19351
11112451,19366
11114451,19548
11116454,19085
11118455,19555
11120458,19392
11122459,19319
11124461,19566
11126465,19036
11128468,19571
11130471,19314
11132473,19383
11134474,18973
11136476,17336
11138478,17713
11140481,17538
11142482,17585
11144484,17732
11146484,17277
11148485,17696
11150489,17585
11152491,17557
11154492,17518
11156496,16586
11158498,17004
11160500,16836
11162501,16827
11164502,16963
11166505,16590
11168505,16991
11170508,16872
11172510,16765
11174512,16781
11176512,15964
11178514,16231
11180517,16231
11182518,16016
11184519,16301
11186520,15988
11188521,16231
11190522,16219
11192526,15966
11194528,16213
11196530,15636
11198533,15855
11200537,15904
11202540,15518
11204540,15952
11206540,15636
11208540,15846
11210544,15850
11212545,15558
11214547,16010
11216548,16070
11218551,16195
11220555,16260
11222556,15900
11224557,16371
11226561,16082
11228563,16165
11230566,16249
11232569,15851
11234571,16341
11236575,16038
11238577,16219
11240581,16253
11242582,15902
11244584,16320
11246586,16091
11248588,16191
11250591,16279
11252593,15868
11254595,16325
11256596,16103
11258600,16167
11260603,16254
11262605,15951
11264608,16297
11266612,16092
11268614,16195
11270617,16255
11272621,15864
11274623,16282
11276625,16135
11278628,16149
11280630,16284
11282631,15895
11284633,16287
11286634,16129
11288637,16101
11290640,16311
11292641,15914
11294642,16267
11296644,16169
11298647,16058
11300649,16253
11302649,15931
11304653,16267
11306653,16185
11308654,16004
11310657,16318
11312658,15951
11314661,16291
11316665,16183
11318665,16018
11320668,16303
11322670,15976
11324670,16214
11326672,16203
11328673,16047
11330675,16307
11332679,16083
11334679,16227
11336680,16235
11338683,15970
11340687,16295
11342690,15984
11344690,16268
11346693,16201
11348697,16045
11350698,16334
11352700,15932
11354700,16267
11356702,16204
11358706,16055
11360708,16296
11362711,15941
11364711,16277
11366713,16179
11368716,16026
11370716,16279
11372719,15971
11374720,16259
11376720,16201
11378720,15958
11380720,16279
11382721,16006
11384722,16211
11386722,16261
11388726,15942
11390728,16313
11392732,16051
11394732,16519
11396735,16950
11398736,16585
11400736,17006
11402737,16830
11404738,16846
11406740,17004
11408742,16547
11410743,17036
11412743,16823
11414745,16987
11416746,17381
11418749,16951
11420752,17379
11422752,17223
11424752,17094
11426753,17383
11428753,17016
11430757,17356
11432758,17277
11434760,15462
11436762,14512
11438764,14200
11440767,14415
11442768,14390
11444769,14160
11446772,14450
11448775,14212
11450778,14372
11452778,14382
11454780,11185
11456781,8997
11458784,8788
11460786,8846
11462787,8871
11464788,8727
11466791,8912
11468794,8815
11470796,8827
11472799,8897
11474802,12236
11476803,15419
11478803,15419
11480805,15311
11482808,15503
11484811,15201
11486813,15505
11488815,15453
11490819,15328
11492820,15577
11494822,25772
11496826,35387
11498830,35714
11500833,35170
11502834,35931
11504836,35116
11506840,35815
11508841,35591
11510841,35307
11512842,35775
11514844,51569
11516844,62952
11518844,62826
11520846,63024
11522849,62834
11524852,62850
11526855,62806
11528858,62553
11530860,62893
11532864,62882
11534865,62865
11536865,62972
11538865,62879
11540865,62573
11542867,62932
11544870,62918
11546870,62906
11548871,62992
11550873,62848
11552874,62889
11554877,50827
11556879,35041
11558881,34968
11560884,35022
11562887,34520
11564889,35202
11566891,34507
11568891,35066
11570894,35010
11572895,34577
11574896,16595
11576897,5916
11578898,5727
11580901,5701
11582902,5675
11584905,5698
11586907,5653
11588910,5689
11590911,5625
11592915,5650
11594916,4568
11596917,3907
11598918,3913
11600920,3902
11602923,3920
11604925,3921
11606926,3891
11608927,3929
11610927,3917
11612930,3893
11614930,8330
11616931,11002
11618931,10965
11620932,11155
11622934,10965
11624937,11107
11626938,11103
11628941,10943
11630941,11169
11632941,10996
11634944,13857
11636947,15840
11638950,15497
11640953,15925
11642956,15733
11644957,15792
11646958,15930
11648958,15490
11650962,15959
11652964,15751
11654965,15990
11656968,16273
11658971,15869
11660973,16248
11662976,16144
11664978,16104
11666980,16317
11668982,15892
11670984,16271
11672987,16167
11674990,16091
11676993,16277
11678994,15880
11680997,16277
11682997,16167
11684998,16061
11686999,16321
11689001,15938
11691001,16248
11693002,16187
11695004,15525
11697008,15538
11699011,15216
11701014,15505
11703015,15434
11705016,15282
11707019,15505
11709021,15262
11711023,15511
11713026,15451
11715026,15505
11717026,15906
11719027,15632
11721030,15843
11723032,15827
11725033,15593
11727033,15925
11729036,15683
11731037,15768
11733037,15855
11735038,15509
11737042,15898
11739045,15701
11741047,15799
11743049,15910
11745050,15491
11747052,15925
11749054,15763
11751056,15759
11753058,15914
11755061,15760
11757061,16308
11759063,16149
11761066,16104
11763070,16307
11765071,15892
11767075,16306
11769076,16177
11771076,16120
11773079,16297
11775081,16360
11777083,17001
11779085,16846
11781086,16786
11783089,17008
11785093,16571
11787096,17004
11789098,16833
11791101,16831
11793103,16996
11795105,16615
11797108,16968
11799111,16902
11801114,16844
11803116,16979
11805116,16599
11807117,16993
11809120,16862
11811122,16788
11813124,17006
11815125,16121
11817127,16277
11819128,16155
11821129,16131
11823130,16277
11825132,15944
11827132,16279
11829135,16165
11831135,16032
11833137,16323
11835138,16723
11837140,17335
11839142,17262
11841144,17074
11843145,17418
11845145,17100
11847146,17313
11849148,17293
11851151,16964
11853152,17381
11855155,17116
11857157,17287
11859158,17311
11861159,16982
11863161,17385
11865162,17078
11867162,17277
11869164,17330
11871166,16924
11873166,17373
11875168,17153
11877171,17258
11879173,17343
11881176,16920
11883176,17396
11885178,17213
11887179,17195
11889179,17349
11891182,16900
11893185,17379
11895186,17492
11897190,17488
11899193,17737
11901196,17255
11903197,17740
11905198,17548
11907198,17560
11909200,17728
11911203,17308
11913205,17722
11915208,18147
11917208,18231
11919211,18484
11921213,18049
11923216,18487
11925217,18375
11927220,18351
11929220,18476
11931224,18057
11933225,18464
11935227,18849
11937231,18995
11939234,19167
11941235,18712
11943238,19186
11945240,18993
11947240,18958
11949240,19175
11951242,18726
11953245,19186
11955247,19321
11957249,19302
11959251,19545
11961253,19099
11963254,19560
11965256,19418
11967258,19324
11969260,19559
11971264,19121
11973265,19528
11975267,19412
11977270,19346
11979274,19529
11981276,19051
11983280,19563
11985281,19373
11987282,19336
11989284,19584
11991285,19035
11993288,19559
11995290,20241
11997290,20379
11999290,20864
12001293,20233
12003295,20631
12005297,20552
12007300,20375
12009304,20651
12011307,20152
12013308,20644
12015310,20471
12017312,20398
12019316,20676
12021319,20154
12023322,20619
12025324,20459
12027324,20373
12029326,20667
12031329,20180
12033332,20671
12035334,21072
12037334,21068
12039335,21393
12041335,20855
12043336,21343
12045337,21267
12047339,20998
12049342,21389
12051345,20885
12053346,21309
12055347,21573
12057347,21328
12059347,21805
12061349,21361
12063349,21695
12065349,21675
12067352,21249
12069352,21771
12071354,21353
12073356,21664
12075359,22580
12077362,22300
12079364,22854
12081365,22460
12083366,22702
12085369,22744
12087370,22350
12089373,22864
12091374,22440
12093376,22744
12095399,23500
12097401,23637
12099401,23959
12101402,23401
12103402,23901
12105414,23717
12107416,23695
12109419,23897
12111420,23367
12113422,23958
12115424,23911
12117424,24054
12119426,24262
12121428,23715
12123428,24311
12125431,24046
12127434,24024
12129437,24226
12131438,23702
12133440,24271
12135443,24509
12137446,24425
12139449,24579
12141452,24062
12143452,24647
12145452,24381
12147455,24503
12149458,24591
12151460,24036
12153463,24656
12155463,25465
12157465,25908
12159467,26044
12161469,25501
12163470,26132
12165474,25758
12167476,25829
12169476,26057
12171478,25517
12173479,26109
12175482,26359
12177484,26594
12179488,26758
12181489,26229
12183491,26896
12185493,26397
12187495,26595
12189498,26724
12191500,26161
12193502,26832
12195504,26910
12197506,27514
12199509,27361
12201509,27125
12203510,27609
12205512,27018
12207515,27536
12209519,27349
12211519,27230
12213520,27554
12215520,27286
12217523,27919
12219526,27726
12221529,27626
12223531,27920
12225532,27310
12227535,27966
12229535,27622
12231537,27669
12233537,27897
12235540,27871
12237542,28653
12239543,28312
12241545,28396
12243548,28611
12245548,28033
12247551,28686
12249553,28205
12251555,28481
12253557,28569
12255559,28044
12257562,28685
12259565,28160
12261565,28422
12263569,28522
12265570,28067
12267574,28651
12269577,28021
12271579,28610
12273579,28545
12275581,27467
12277584,27961
12279587,27318
12281588,27856
12283591,27734
12285593,27534
12287596,27957
12289600,27302
12291602,27917
12293604,27678
12295608,26642
12297611,26852
12299613,26175
12301615,26861
12303615,26582
12305618,26546
12307619,26842
12309621,26157
12311623,26845
12313625,26536
12315628,25899
12317630,26085
12319634,25472
12321635,26130
12323636,25794
12325639,25852
12327639,26191
12329642,25471
12331644,26073
12333646,25738
12335649,24236
12337651,24238
12339651,23721
12341652,24304
12343654,23971
12345656,24125
12347660,24236
12349663,23694
12351664,24324
12353666,23953
12355666,23487
12357669,23526
12359671,22984
12361673,23580
12363674,23225
12365678,23416
12367680,23503
12369683,23028
12371685,23606
12373686,23191
12375690,22123
12377693,22015
12379696,21660
12381696,22139
12383698,21734
12385700,22008
12387702,22027
12389704,21627
12391705,22120
12393708,21792
12395711,21056
12397712,20930
12399716,20557
12401718,21032
12403719,20619
12405719,20885
12407722,20916
12409724,20562
12411727,21030
12413730,20683
12415733,20894
12417733,20877
12419736,20547
12421738,21012
12423738,20659
12425742,20889
12427745,20900
12429748,20527
12431750,21028
12433752,20663
12435754,20639
12437754,20585
12439757,20194
12441760,20729
12443762,20347
12445765,20569
12447767,20589
12449770,20148
12451773,20685
12453775,20345
12455779,20252
12457780,20247
12459784,19821
12461786,20379
12463788,19952
12465790,20204
12467792,20274
12469795,19872
12471797,20325
12473798,20024
12475798,20100
12477800,20292
12479802,19803
12481803,20305
12483805,20090
12485806,20082
12487809,20253
12489812,19816
12491814,20312
12493816,20086
12495818,20080
12497819,20292
12499822,19785
12501822,20261
12503824,20126
12505827,20092
12507830,20287
12509833,19834
12511834,20303
12513835,20106
12515837,19310
12517837,19579
12519840,19130
12521842,19519
12523845,19494
12525846,19190
12527848,19527
12529852,19086
12531854,19518
12533856,19414
12535858,19292
12537862,19593
12539865,19118
12541868,19537
12543870,19372
12545873,19300
12547873,19555
12549876,19088
12551878,19549
12553881,19398
12555884,20284
12557887,20670
12559890,20160
12561891,20649
12563893,20458
12565895,20427
12567897,20640
12569900,20155
12571901,20692
12573904,20417
12575905,20437
12577908,20682
12579912,20149
12581912,20687
12583914,20471
12585916,20409
12587917,20651
12589917,20160
12591919,20615
12593920,20485
12595921,20029
12597924,20305
12599927,19833
12601930,20263
12603931,20146
12605934,19971
12607935,20321
12609936,19847
12611938,20245
12613940,20152
12615941,19973
12617942,20323
12619943,19824
12621944,20214
12623945,20215
12625947,19873
12627948,20354
12629949,19956
12631949,20235
12633951,20236
12635953,20186
12637954,20647
12639957,20293
12641959,20581
12643961,20588
12645961,20224
12647962,20691
12649965,20303
12651967,20588
12653968,20523
12655968,20170
12657971,20669
12659974,20317
12661977,20591
12663979,20576
12665982,20310
12667984,20676
12669985,20329
12671988,20590
12673988,20586
12675990,20164
12677993,20639
12679996,20343
12681998,20515
12684000,20599
12686001,20196
12688004,20684
12690006,20379
12692008,20573
12694009,20593
12696010,19830
12698012,20339
12700014,19990
12702014,20157
12704016,20235
12706017,19747
12708020,20331
12710023,20028
12712024,20168
12714025,20279
12716026,20124
12718028,20671
12720029,20403
12722030,20512
12724032,20623
12726034,20142
12728035,20686
12730039,20417
12732042,20518
12734044,20627
12736048,20133
12738050,20630
12740052,20399
12742054,20492
12744057,20625
12746059,20148
12748062,20674
12750065,20338
12752067,20556
12754069,20585
12756072,19842
12758074,20337
12760076,20101
12762077,20219
12764077,20267
12766079,19805
12768082,20323
12770085,20007
12772085,20112
12774086,20249
12776089,19082
12778092,19581
12780096,19230
12782096,19449
12784100,19564
12786100,19083
12788101,19556
12790102,19316
12792104,19366
12794106,19535
12796106,18724
12798110,19194
12800113,18997
12802115,19015
12804116,19167
12806118,18690
12808120,19220
12810124,18910
12812126,19081
12814127,19210
12816130,19058
12818132,19496
12820136,19287
12822137,19430
12824139,19531
12826141,19069
12828142,19600
12830144,19300
12832146,19474
12834148,19512
12836149,19033
12838152,19580
12840152,19350
12842154,19352
12844157,19543
12846157,19051
12848160,19545
12850163,19338
12852164,19372
12854165,19533
12856168,19081
12858171,19559
12860174,19301
12862177,19428
12864179,19486
12866179,19102
12868179,19604
12870182,19337
12872186,19384
12874187,19533
12876191,19086
12878193,19572
12880195,19283
12882196,19456
12884198,19482
12886201,19135
12888201,19599
12890203,19307
12892205,19428
12894208,19524
12896211,19063
12898215,19567
12900217,19274
12902219,19475
12904221,19509
12906221,19107
12908225,19560
12910225,19279
12912227,19440
12914227,19533
12916230,19102
12918233,19599
12920235,19247
12922238,20348
12924240,20584
12926241,20156
12928244,20663
12930244,20297
12932246,20596
12934248,20583
12936252,20210
12938255,20672
12940258,20297
12942259,20593
12944259,20569
12946261,20197
12948264,20808
12950266,20243
12952269,20631
12954270,20544
12956271,20205
12958272,20667
12960273,20335
12962274,20838
12964276,20972
12966279,20507
12968283,21042
12970286,20669
12972289,20972
12974292,20927
12976296,20599
12978296,21045
12980299,20667
12982303,20640
12984306,20507
12986306,20219
12988307,20718
12990310,20257
12992312,20572
12994313,20571
12996313,20188
12998315,20645
13000315,20279
13002317,20589
13004318,20546
13006322,20234
13008326,20685
13010329,20223
13012331,20667
13014332,20537
13016333,20285
13018336,20664
13020337,20241
13022338,21475
13024339,21634
13026340,21258
13028343,21766
13030343,21449
13032346,21704
13034348,21682
13036348,21225
13038350,21779
13040353,21393
13042354,23377
13044354,24078
13046356,23398
13048356,23927
13050360,23626
13052361,23798
13054362,23881
13056365,23396
13058369,23984
13060371,23556
13062374,25185
13064376,25696
13066380,25136
13068384,25794
13070386,25276
13072389,25651
13074390,25627
13076393,25182
13078395,25764
13080395,25273
13082396,24970
13084398,24902
13086399,24421
13088401,25092
13090403,24597
13092405,24908
13094406,24954
13096409,24449
13098409,25018
13100413,24590
13102414,23463
13104416,23117
13106419,22666
13108419,23221
13110422,22782
13112424,23057
13114425,23073
13116426,22673
13118427,23237
13120428,22778
13122432,23157
13124433,23091
13126434,22687
13128437,23231
13130439,22781
13132442,23111
13134443,23126
13136443,22675
13138443,23219
13140447,22795
13142450,21008
13144452,20609
13146456,20197
13148458,20673
13150461,20306
13152464,20565
13154467,20595
13156467,20223
13158469,20666
13160470,20319
13162472,19946
13164476,19884
13166476,19470
13168478,19956
13170480,19616
13172482,19799
13174482,19840
13176485,19459
13178485,19914
13180487,19645
13182487,19149
13184489,19157
13186490,18700
13188493,19218
13190496,18942
13192498,19022
13194499,19160
13196502,18732
13198504,19206
13200508,18889
13202509,18444
13204512,18436
13206512,18029
13208513,18478
13210515,18298
13212516,18302
13214520,18482
13216521,18009
13218524,18476
13220526,18312
13222526,18573
13224528,18834
13226531,18384
13228533,18796
13230535,18662
13232536,18573
13234538,18812
13236539,18354
13238541,18810
13240544,18673
13242545,18546
13244547,18852
13246547,18361
13248550,18866
13250553,18693
13252555,18597
13254555,18818
13256558,18371
13258561,18796
13260564,18680
13262566,18600
13264568,18785
13266572,18388
13268575,18800
13270577,18806
13272579,18618
13274579,18841
13276581,18396
13278582,18798
13280585,18723
13282588,18826
13284590,19191
13286590,18850
13288591,19153
13290593,19054
13292596,18879
13294598,19218
13296601,18779
13298604,19147
13300606,19045
13302607,18906
13304609,19202
13306612,18785
13308615,19220
13310618,19002
13312621,18971
13314622,19145
13316623,18592
13318627,19153
13320627,19025
13322628,18588
13324629,18859
13326632,18403
13328633,18817
13330633,18692
13332636,18698
13334638,19009
13336641,18372
13338643,18816
13340647,18612
13342648,18581
13344649,18826
13346653,18377
13348653,18843
13350657,18685
13352661,18601
13354663,18824
13356666,18360
13358668,18821
13360668,18665
13362672,18652
13364675,18829
13366678,18358
13368682,18824
13370686,18626
13372689,18688
13374691,18836
13376695,18368
13378697,18816
13380700,18636
13382703,18678
13384705,18832
13386709,18330
13388709,18832
13390713,18605
13392715,18669
13394718,18782
13396721,18378
13398723,18867
13400725,18628
13402727,19648
13404728,19935
13406729,19428
13408731,19972
13410734,19685
13412736,19747
13414738,19926
13416740,19432
13418743,19952
13420745,19722
13422748,20421
13424749,20648
13426749,20100
13428749,20677
13430752,20461
13432754,20459
13434756,20662
13436758,20108
13438758,20659
13440761,20492
13442761,17163
13444761,17026
13446762,16617
13448762,17014
13450764,16859
13452767,16842
13454770,16992
13456772,16585
13458775,17018
13460775,16864
13462776,10449
13464776,10027
13466776,9839
13468779,10016
13470782,9923
13472783,9881
13474784,9996
13476786,9822
13478789,9977
13480792,9948
13482794,16962
13484797,18138
13486800,17748
13488800,18031
13490803,18031
13492804,17774
13494807,18114
13496807,17764
13498811,18086
13500814,18003
13502817,39786
13504819,42797
13506823,42130
13508823,42579
13510826,42634
13512827,42093
13514828,42845
13516831,41995
13518833,42777
13520835,42367
13522837,63014
13524839,62905
13526843,63032
13528846,63314
13530847,62917
13532849,63043
13534850,63230
13536853,62975
13538856,62964
13540858,63001
13542859,62907
13544861,62934
13546863,63021
13548867,62887
13550870,62976
13552871,62911
13554873,62893
13556876,62994
13558879,62907
13560882,62958
13562882,44058
13564883,41778
13566883,41365
13568885,41453
13570888,41711
13572892,40905
13574894,41720
13576897,41097
13578899,41387
13580902,41634
13582903,8778
13584905,6591
13586906,6470
13588908,6523
13590908,6522
13592912,6434
13594913,6545
13596914,6456
13598916,6508
13600917,6509
13602918,4480
13604919,4403
13606923,4392
13608923,4383
13610925,4384
13612925,4367
13614926,4368
13616926,4397
13618928,4355
13620931,4394
13622933,12261
13624935,12882
13626937,12974
13628940,12663
13630943,12977
13632945,12832
13634946,12856
13636946,12968
13638950,12674
13640953,12993
13642957,17895
13644958,18284
13646961,18466
13648963,18035
13650965,18474
13652967,18374
13654969,18243
13656971,18478
13658972,18051
13660974,18459
13662975,19069
13664976,18832
13666980,19206
13668984,18781
13670987,19146
13672987,19058
13674990,18875
13676991,19234
13678993,18813
13680997,19165
13682997,18735
13684999,18504
13687002,18879
13689002,18553
13691006,18736
13693009,18790
13695009,18393
13697009,18844
13699013,18542
13701014,18772
13703017,18089
13705020,17724
13707022,18145
13709024,17816
13711026,18029
13713028,18094
13715029,17700
13717030,18114
13719033,17806
13721034,18058
13723036,18425
13725036,17947
13727037,18530
13729037,18258
13731037,18304
13733039,18462
13735041,18019
13737044,18490
13739047,18266
13741051,18305
13743052,18447
13745054,17945
13747054,18498
13749054,18365
13751057,18302
13753059,18482
13755061,18009
13757064,18434
13759068,18306
13761071,18288
13763074,18815
13765077,18358
13767080,18831
13769082,18618
13771084,18666
13773086,18814
13775088,18390
13777091,18848
13779093,18652
13781093,18568
13783094,19912
13785095,19496
13787095,19881
13789095,19773
13791098,19657
13793101,19952
13795102,19482
13797106,19910
13799109,19665
13801112,19647
13803115,19945
13805117,19479
13807118,19901
13809122,19793
13811124,19624
13813127,19988
13815129,19468
13817129,19921
13819132,19799
13821134,19661
13823136,19235
13825138,18701
13827140,19177
13829143,19026
13831146,18891
13833148,19212
13835150,18760
13837150,19087
13839151,19082
13841154,18911
13843156,20589
13845158,20277
13847158,20603
13849160,20541
13851163,20186
13853167,20639
13855168,20177
13857170,20595
13859171,20588
13861173,20234
13863174,20367
13865176,19925
13867179,20261
13869183,20161
13871186,19965
13873188,20316
13875191,19894
13877194,20254
13879197,20197
13881198,19824
13883199,20678
13885201,20271
13887203,20584
13889206,20561
13891206,20449
13893209,20682
13895211,20261
13897214,20631
13899216,20519
13901218,20283
13903222,20675
13905223,20251
13907223,20596
13909223,20509
13911226,20369
13913228,20669
13915230,20247
13917233,20582
13919233,20507
13921236,20326
13923238,21720
13925241,21311
13927241,21683
13929244,21628
13931246,21622
13933248,21766
13935251,21277
13937254,21756
13939255,21612
13941258,21394
13943260,22450
13945260,21993
13947263,22444
13949265,22321
13951268,22101
13953270,22444
13955271,21985
13957274,22446
13959276,22345
13961277,22059
13963278,22832
13965280,22268
13967282,22778
13969283,22693
13971287,22425
13973287,22866
13975288,22317
13977288,22769
13979292,22694
13981295,22392
13983297,23180
13985299,22716
13987302,23175
13989304,23021
13991307,22794
13993309,23244
13995311,22715
13997312,23151
13999315,23069
14001317,22746
14003318,24284
14005319,23781
14007322,24220
14009325,24166
14011328,23857
14013330,24303
14015330,23777
14017330,24234
14019330,24105
14027981,24246
14029984,24082
14031987,23905
14033990,24274
14035993,23652
14037993,24264
14039995,24090
14041995,24315
14043996,24980
14045999,24403
14048000,24969
14050002,24859
14052002,24522
14054002,24967
14056002,24454
14058005,24929
14060007,24814
14062010,25091
14064014,25758
14066016,25163
14068016,25744
14070019,25559
14072020,25202
14074022,25766
14076024,25152
14078027,25732
14080031,25487
14082033,26041
14084034,26869
14086035,26235
14088037,26756
14090039,26594
14092043,26333
14094043,27010
14096045,26153
14098045,26751
14100047,26580
14102051,27093
14104054,27873
14106057,27245
14108057,27853
14110058,27700
14112060,27520
14114062,27945
14116065,27301
14118065,27905
14120065,27759
14122067,27873
14124070,28673
14126073,27985
14128076,28513
14130076,28447
14132078,28237
14134079,28653
14136081,28076
14138084,28640
14140084,28459
14142085,28451
14144086,29028
14146089,28376
14148090,29003
14150093,28808
14152095,28602
14154096,29041
14156099,28382
14158101,29033
14160104,28766
14162107,29882
14164108,30865
14166110,30179
14168112,30854
14170113,30580
14172114,30469
14174114,30786
14176118,30138
14178121,30866
14180121,30479
14182124,31034
14184124,31513
14186128,30845
14188129,31580
14190132,31058
14192135,31276
14194135,31524
14196135,30902
14198136,31612
14200137,31172
14202139,32004
14204141,32632
14206142,31971
14208146,32672
14210146,32186
14212147,32393
14214148,32603
14216151,31941
14218153,32669
14220156,32173
14222159,32699
14224161,32915
14226164,32398
14228166,33045
14230168,32444
14232172,32943
14234173,32838
14236176,32446
14238179,33033
14240181,32311
14242182,33430
14244184,33478
14246186,33137
14248187,33681
14250188,33017
14252191,33663
14254192,33427
14256194,33237
14258198,33715
14260198,33003
14262198,33918
14264199,33829
14266203,33561
14268203,34128
14270205,33370
14272207,34089
14274209,33780
14276209,33615
14278212,34108
14280216,33381
14282219,33296
14284221,32715
14286225,32661
14288228,32997
14290228,32285
14292231,32787
14294234,32587
14296238,32775
14298239,32916
14300242,32320
14302245,32009
14304248,31000
14306250,31397
14308252,31443
14310253,30932
14312255,31632
14314257,30929
14316259,31407
14318262,31434
14320265,30946
14322267,31103
14324269,30237
14326269,30796
14328272,30682
14330272,30249
14332275,30871
14334278,30052
14336280,30801
14338284,30908
14340284,30309
14342287,29229
14344288,28048
14346290,28571
14348290,28437
14350293,28184
14352294,28686
14354294,28032
14356297,28622
14358299,28439
14360301,28266
14362303,28173
14364304,27317
14366307,27851
14368309,27735
14370311,27471
14372311,27952
14374315,27267
14376315,27864
14378316,27720
14380318,27461
14382319,26563
14384323,25541
14386326,26049
14388329,25904
14390333,25697
14392334,26112
14394335,25342
14396335,26072
14398338,25934
14400340,25669
14402343,24905
14404345,24044
14406348,24569
14408351,24472
14410353,24216
14412354,24673
14414357,24309
14416359,24568
14418361,24448
14420365,24022
14422366,24643
14424368,24108
14426372,24588
14428376,24423
14430377,24295
14432379,24618
14434380,24038
14436381,24645
14438381,24472
14440381,24198
14442384,24369
14444385,23751
14446388,24234
14448388,24125
14450390,23895
14452390,24334
14454390,23847
14456391,24194
14458395,24175
14460395,23782
14462396,24066
14464398,23492
14466400,23827
14468403,23807
14470403,23427
14472404,23957
14474404,23554
14476408,23833
14478409,23896
14480412,23405
14482414,23917
14484416,23510
14486418,23825
14488421,23835
14490423,23422
14492424,23953
14494426,23586
14496428,23825
14498429,23859
14500433,23400
14502435,23993
14504437,23559
14506440,23823
14508441,23860
14510443,23386
14512445,23961
14514447,23534
14516449,23822
14518450,23845
14520453,23380
14522455,23346
14524457,22843
14526458,23051
14528460,23113
14530462,22619
14532464,23217
14534466,22836
14536468,23019
14538472,23145
14540475,22615
14542478,23236
14544479,22903
14546483,23036
14548486,23108
14550489,22680
14552491,23215
14554493,22802
14556493,23011
14558493,23124
14560496,22622
14562498,24098
14564500,24002
14566503,24028
14568507,24232
14570509,23560
14572511,24319
14574512,23969
14576514,24058
14578516,24259
14580519,23694
14582522,24324
14584522,24008
14586524,23996
14588525,24282
14590526,23694
14592527,24269
14594528,24120
14596530,24000
14598532,24300
14600535,23743
14602537,23955
14604538,23700
14606541,23614
14608542,23929
14610545,23300
14612547,23939
14614549,23713
14616551,23567
14618555,23961
14620556,23368
14622560,23903
14624561,23738
14626563,23637
14628566,23942
14630568,23368
14632571,23939
14634572,23681
14636575,23675
14638576,23931
14640579,23334
14642579,24233
14644581,24094
14646584,24016
14648587,24301
14650589,23813
14652590,24310
14654592,24050
14656595,24036
14658597,24283
14660600,23645
14662600,24265
14664600,24111
14666601,23917
14668602,24350
14670604,23658
14672606,24243
14674608,24099
14676610,23889
14678610,24286
14680614,23725
14682616,24264
14684619,24152
14686620,23889
14688623,24288
14690626,23761
14692627,24277
14694627,24116
14696628,23891
14698630,24288
14700633,23763
14702637,23899
14704638,23783
14706640,23545
14708642,23975
14710645,23373
14712646,23927
14714648,23809
14716651,23522
14718654,23917
14720658,23417
14722659,24198
14724660,24149
14726660,23895
14728661,24274
14730665,23735
14732666,24211
14734668,24108
14736668,23913
14738669,24314
14740670,23826
14742672,24200
14744674,24150
14746676,23761
14748679,24312
14750683,23774
14752685,24216
14754686,24146
14756688,23821
14758690,24274
14760694,23760
14762694,23929
14764696,23834
14766697,23452
14768700,23963
14770701,23531
14772701,23837
14774705,23802
14776705,23408
14778707,23969
14780710,23534
14782712,23151
14784712,23149
14786715,22684
14788718,23227
14790720,22830
14792722,23033
14794723,23118
14796726,22590
14798729,23201
14800731,22778
14802732,22383
14804732,22452
14806735,21932
14808738,22504
14810741,22053
14812741,22337
14814743,22350
14816746,21958
14818748,22522
14820752,22103
14822752,22638
14824753,22768
14826753,22291
14828755,22833
14830758,22469
14832760,22680
14834762,22799
14836765,22252
14838767,22850
14840769,22500
14842769,22650
14844770,22762
14846771,22305
14848773,22823
14850774,22460
14852775,22578
14854776,22810
14856776,22237
14858779,22842
14860780,22571
14862781,22586
14864784,22754
14866787,22253
14868789,22819
14870791,22596
14872793,22609
14874793,22835
14876794,22229
14878797,22804
14880800,22600
14882801,22585
14884803,22832
14886806,22326
14888809,22788
14890811,22640
14892813,22532
14894814,22848
14896816,22276
14898816,22791
14900820,22646
14902822,22464
14904823,22833
14906825,22300
14908828,22830
14910828,22670
14912830,22464
14914831,22840
14916833,22313
14918836,22768
14920840,22669
14922842,20803
14924843,20984
14926847,20559
14928849,20984
14930853,20898
14932854,20601
14934857,21032
14936859,20489
14938861,20966
14940863,20918
14942866,20689
14944868,21001
14946870,20559
14948870,20953
14950872,20922
14952874,20514
14954876,21037
14956876,20656
14958879,20902
14960880,20938
14962883,20835
14964885,21413
14966885,21021
14968887,21279
14970889,21320
14972891,20887
14974892,21387
14976892,21118
14978894,21284
14980898,21293
14982900,20422
14984902,20675
14986904,20354
14988904,20469
14990907,20577
14992909,20148
14994911,20680
14996912,20378
14998912,20489
15000916,20623
15002917,20449
15004919,21024
15006919,20754
15008921,20825
15010923,21024
15012923,20485
15014926,21041
15016927,20737
15018930,21578
15020930,22103
15022931,21584
15024932,22112
15026935,21859
15028938,21951
15030940,22097
15032942,21561
15034944,21999
15036945,23548
15038945,23638
15040949,23999
15042951,23352
15044953,23884
15046956,23643
15048956,23642
15050960,23953
15052961,24425
15054963,26075
15056964,25853
15058967,25834
15060969,26058
15062971,25472
15064972,26096
15066975,25842
15068976,25784
15070978,25465
15072981,24773
15074981,25390
15076984,25141
15078985,25083
15080987,25377
15082987,24790
15084989,25389
15086989,24403
15088991,22977
15090993,23193
15092994,22614
15094994,23165
15096998,22954
15098999,22812
15101003,23180
15103004,22608
15105006,23141
15107006,23051
15109006,22851
15111009,23186
15113010,22651
15115010,23172
15117013,22985
15119015,22835
15121018,22987
15123021,20623
15125022,21021
15127026,20825
15129026,20696
15131026,20755
15133026,20415
15135026,20926
15137026,20840
15139028,19865
15141032,19945
15143034,19529
15145037,19892
15147040,19785
15149042,19581
15151045,19881
15153046,19571
15155048,19916
15157052,19093
15159054,18911
15161058,19173
15163061,18717
15165063,19159
15167063,19047
15169063,18851
15171066,19222
15173067,18560
15175069,18786
15177073,18727
15179076,18466
15181079,18838
15183079,18510
15185082,18775
15187082,18758
15189082,18371
15191086,19183
15193089,18857
15195091,19105
15197092,19074
15199094,18814
15201097,19214
15203099,18848
15205101,19122
15207104,19123
15209107,18726
15211110,19246
15213111,18879
15215113,19095
15217116,19135
15219118,18736
15221119,19153
15223121,18885
15225123,19055
15227124,19136
15229125,18682
15231129,19194
15233130,18931
15235132,19019
15237136,19210
15239139,18704
15241142,19199
15243146,18882
15245147,19061
15247147,19157
15249149,18689
15251152,19210
15253155,18921
15255157,19075
15257157,19170
15259157,18712
15261160,19173
15263161,18987
15265161,19013
15267164,19125
15269168,18696
15271170,19190
15273171,18973
15275173,19029
15277176,19151
15279176,18718
15281177,19218
15283180,18979
15285183,18993
15287185,19168
15289186,18720
15291190,19162
15293193,18977
15295196,19051
15297197,19195
15299201,18674
15301205,19190
15303208,18951
15305210,19029
15307214,19173
15309218,18722
15311218,19213
15313220,18997
15315223,19070
15317223,19135
15319225,18724
15321229,19171
15323230,18962
15325232,18947
15327234,19180
15329234,18666
15331238,19207
15333241,18916
15335244,19069
15337244,19220
15339245,18688
15341247,19203
15343248,19006
15345248,19647
15347250,19930
15349250,19262
15351253,19968
15353255,19750
15355257,19711
15357260,19949
15359260,19434
15361262,20118
15363263,20538
15365264,20277
15367265,20656
15369268,20193
15371272,20602
15373275,20473
15375278,20404
15377280,20655
15379283,17102
15381285,17034
15383285,16854
15385285,16748
15387287,17015
15389290,16588
15391294,17002
15393295,16869
15395296,16541
15397299,10610
15399299,10200
15401301,10381
15403303,10329
15405306,10266
15407306,10416
15409307,10228
15411310,10316
15413312,16273
15415314,17973
15417314,18508
15419317,18254
15421321,18341
15423321,18488
15425323,17995
15427325,18508
15429325,18394
15431329,41407
15433331,43083
15435334,42321
15437335,43089
15439338,42826
15441341,42613
15443343,43168
15445344,42321
15447347,63199
15449349,62942
15451351,63055
15453353,62891
15455355,63000
15457356,62997
15459360,62939
15461360,62978
15463363,62968
15465366,62951
15467369,63002
15469371,62904
15471374,62904
15473374,62963
15475376,62932
15477378,63000
15479381,62844
15481385,61159
15483385,42398
15485402,41903
15487402,41303
15489406,42123
15491409,41464
15493410,42043
15495410,41728
15497412,41435
15499414,10586
15501416,6568
15503418,6558
15505418,6483
15507419,6484
15509423,6531
15511426,6438
15513428,6565
15515431,6168
15517434,4416
15519436,4379
15521437,4335
15523438,4409
15525439,4349
15527443,4363
15529445,4363
15531447,4361
15533451,11270
15535453,12907
15537454,12692
15539456,12992
15541458,12830
15543461,12860
15545462,12964
15547462,12826
15549465,13398
15551469,18528
15553472,18492
15555474,18845
15557477,18450
15559481,18798
15561482,18743
15563484,18483
15565484,18861
15567487,18740
15569490,19119
15571493,19097
15573494,18742
15575496,19207
15577497,18858
15579497,19137
15581501,19131
15583501,18719
15585501,19184
15587502,18913
15589503,19051
15591504,19150
15593504,18577
15595507,19207
15597510,18983
15599511,19180
15601512,18824
15603513,18002
15605515,18504
15607517,18309
15609521,18222
15611523,18460
15613524,17967
15615526,18457
15617529,18282
15619532,18496
15621534,18846
15623534,18387
15625534,18808
15627534,18735
15629535,18489
15631536,18881
15633537,18453
15635537,18806
15637538,18751
15639540,18351
15641544,18825
15643545,18512
15645548,18783
15647551,18772
15649554,18412
15651555,18856
15653555,18872
15655557,19038
15657557,19138
15659557,18704
15661558,19207
15663559,18937
15665560,19001
15667562,19139
15669564,18828
15671565,19906
15673565,19772
15675567,19663
15677569,19934
15679569,19454
15681571,19944
15683573,19789
15685576,19902
15687580,19932
15689582,19463
15691585,19946
15693586,19812
15695589,19718
15697590,19950
15699591,19540
15701591,19832
15703591,19816
15705593,18882
15707593,19212
15709596,18823
15711597,19111
15713601,19091
15715602,18735
15717602,19202
15719602,18914
15721604,19890
15723605,20627
15725606,20142
15727608,20657
15729610,20369
15731610,20514
15733610,20665
15735612,20128
15737612,20635
15739615,20112
15741617,20069
15743618,20305
15745621,19819
15747624,20298
15749627,20110
15751631,20109
15753631,20305
15755634,19886
15757636,20637
15759639,20465
15761639,20367
15763641,20683
15765644,20152
15767648,20643
15769651,20559
15771653,20384
15773655,20941
15775659,20430
15777662,21022
15779664,20841
15781666,20719
15783669,21024
15785671,20495
15787673,21018
15789676,20988
15791678,21750
15793680,21887
15795682,21618
15797684,22111
15799688,21932
15801691,21834
15803692,22138
15805693,21630
15807693,22620
15809695,22649
15811697,22368
15813701,22834
15815702,22310
15817705,22798
15819708,22714
15821709,22453
15823711,22845
15825714,22684
15827717,23155
15829719,23053
15831720,22742
15833721,23200
15835723,22684
15837725,23147
15839727,23052
15841731,22730
15843732,23191
15845735,22723
15847735,23119
15849737,23050
15851741,22564
15853742,23213
15855743,22762
15857745,23063
15859748,24092
15861751,23791
15863752,24312
15865753,23821
15867755,24219
15869757,24173
15871759,23786
15873760,24299
15875764,23837
15877765,24175
15879767,24203
15881768,23779
15883768,24333
15885768,23933
15887770,24140
15889774,24228
15891777,23763
15893779,25272
15895781,24958
15897782,25192
15899784,25335
15901784,24772
15903786,25402
15905790,25012
15907793,25226
15909795,25526
15911796,25465
15913798,26122
15915798,25714
15917801,25929
15919805,26030
15921805,25501
15923805,26100
15925805,25726
15927806,26831
15929809,27211
15931809,26560
15933813,27265
15935815,26834
15937818,27078
15939821,27134
15941823,26601
15943824,27362
15945826,27755
15947829,28152
15949831,28178
15951833,27702
15953835,28315
15955838,27811
15957841,28158
15959843,28172
15961844,28268
15963846,29055
15965847,28547
15967849,28871
15969853,28946
15971853,28334
15973854,29065
15975855,28505
15977857,28901
15979860,29277
15981862,28817
15983864,29440
15985864,28856
15987866,29214
15989868,29340
15991869,28747
15993871,29440
15995873,30156
15997877,31088
15999880,31101
16001882,30605
16003882,31158
16005882,30700
16007885,31030
16009889,31051
16011890,30620
16013892,31889
16015892,31376
16017894,31746
16019894,31838
16021896,31292
16023900,31925
16025903,31301
16027905,31808
16029907,32348
16031910,32466
16033913,33059
16035916,32372
16037918,32947
16039918,32783
16041919,32364
16043920,33056
16045921,32339
16047923,33252
16049926,33171
16051928,32761
16053931,33382
16055933,32732
16057934,33298
16059937,33129
16061938,32817
16063939,33612
16065942,33357
16067942,34018
16069944,33885
16071946,33520
16073950,34144
16075950,33392
16077951,34062
16079952,33811
16081953,33834
16083955,34482
16085956,33788
16087956,34383
16089956,34234
16091958,33889
16093959,34465
16095961,33746
16097962,34381
16099965,33189
16101968,32831
16103970,33380
16105970,32656
16107972,33339
16109975,33109
16111977,32897
16113979,33356
16115979,31739
16117979,31871
16119982,31680
16121982,31380
16123982,31977
16125982,31274
16127986,31874
16129988,31699
16131988,31385
16133988,31238
16135992,30602
16137993,31090
16139995,31034
16141998,30724
16143999,31244
16146001,30547
16148004,31168
16150007,29871
16152009,28640
16154011,29031
16156014,28381
16158016,29017
16160018,28785
16162020,28570
16164021,29021
16166022,28381
16168025,28039
16170028,27722
16172031,27551
16174033,27937
16176036,27333
16178036,27911
16180039,27729
16182041,27507
16184043,27555
16186043,25850
16188044,26474
16190047,26233
16192049,25993
16194049,26460
16196051,25868
16198054,26392
16200057,26285
16202059,24949
16204061,25070
16206061,24497
16208064,24983
16210065,24847
16212065,24480
16214066,25056
16216070,24511
16218071,24939
16220073,24905
16222075,24496
16224076,25006
16226077,24505
16228080,24917
16230083,24853
16232083,24461
16234085,25054
16236088,24002
16238092,24176
16240096,24180
16242099,23821
16244101,24310
16246102,23788
16248106,24212
16250110,24177
16252113,23763
16254115,24006
16256118,23563
16258121,23829
16260124,23793
16262126,23462
16264126,23951
16266128,23532
16268130,23821
16270134,23837
16272136,23441
16274139,23991
16276141,23506
16278144,23845
16280147,23789
16282148,23453
16284150,23955
16286151,23492
16288152,23867
16290154,23874
16292156,23389
16294158,23994
16296161,23563
16298163,23800
16300165,23889
16302167,23377
16304167,23621
16306169,22847
16308169,23015
16310171,23156
16312173,22642
16314174,23217
16316178,22927
16318181,22962
16320185,23138
16322186,22580
16324186,23150
16326188,22985
16328188,22957
16330189,23129
16332190,22640
16334191,23223
16336194,22984
16338196,23025
16340198,24258
16342199,23746
16344200,24264
16346202,24122
16348204,23918
16350207,24319
16352208,23829
16354212,24227
16356214,24140
16358216,23862
16360219,24342
16362221,23793
16364221,24254
16366221,24206
16368224,23810
16370228,24371
16372229,23807
16374231,23889
16376233,23843
16378236,23462
16380238,23951
16382239,23432
16384241,23857
16386242,23878
16388244,23506
16390246,23969
16392247,23576
16394250,23769
16396253,23781
16398255,23473
16400257,23943
16402259,23513
16404260,23835
16406264,23815
16408267,23763
16410267,24320
16412271,23853
16414273,24180
16416276,24181
16418276,23755
16420278,24343
16422281,23850
16424282,24199
16426285,24157
16428285,23811
16430285,24306
16432288,23945
16434289,24133
16436290,24244
16438294,23707
16440295,24294
16442296,23955
16444297,24112
16446297,24216
16448298,23706
16450301,24301
16452302,24008
16454304,24061
16456307,24286
16458308,23605
16460310,23921
16462310,23717
16464311,23607
16466312,24006
16468315,23366
16470315,23913
16472317,23706
16474318,23544
16476319,24257
16478323,23803
16480326,24258
16482329,24150
16484331,23821
16486332,24328
16488336,23801
16490340,24269
16492341,24124
16494343,23917
16496343,24329
16498343,23905
16500346,24192
16502348,24198
16504349,23729
16506350,24306
16508353,23926
16510356,23901
16512358,23861
16514360,23406
16516360,23907
16518363,23584
16520365,23815
16522368,23914
16524370,23380
16526373,24000
16528376,22922
16530378,23013
16532379,23143
16534381,22626
16536382,23231
16538385,22876
16540387,23023
16542389,23163
16544391,22410
16546394,22831
16548394,22557
16550398,22582
16552399,22785
16554402,22248
16556406,22838
16558408,22513
16560409,22577
16562412,23163
16564413,22622
16566414,23200
16568414,22964
16570416,22934
16572418,23180
16574418,22642
16576421,23183
16578422,23036
16580423,22887
16582425,23216
16584428,22653
16586429,23147
16588432,23023
16590435,22844
16592437,23227
16594438,22643
16596440,23147
16598442,23027
16600445,22858
16602448,23203
16604448,22676
16606451,23119
16608454,23043
16610457,22804
16612458,23209
16614459,22699
16616462,23105
16618465,23064
16620466,22792
16622467,23209
16624467,22709
16626467,23091
16628468,23145
16630471,22712
16632473,23213
16634476,22720
16636477,23143
16638480,23047
16640480,22674
16642481,23227
16644482,22818
16646482,23083
16648482,18967
16650486,18443
16652488,18820
16654490,18516
16656493,18770
16658496,18796
16660498,18394
16662498,18864
16664498,18607
16666502,18734
16668504,18802
16670507,18345
16672508,18838
16674510,18616
16676511,18665
16678515,18824
16680517,18390
16682519,19204
16684521,18993
16686524,18997
16688527,19165
16690530,18701
16692531,19188
16694531,19007
16696531,19011
16698534,19015
16700536,18428
16702537,18849
16704537,18748
16706540,18586
16708540,18857
16710541,18474
16712543,18808
16714545,18757
16716546,18500
16718548,18853
16720551,18506
16722551,18766
16724551,18763
16726553,18432
16728556,18845
16730557,18578
16732558,18967
16734562,19835
16736563,19493
16738566,20032
16740568,19611
16742570,19847
16744572,19898
16746573,19429
16748575,19992
16750575,21084
16752576,21574
16754578,21714
16756578,21222
16758578,21742
16760581,21555
16762582,21545
16764585,21726
16766587,21261
16768590,23524
16770593,23343
16772597,23328
16774599,23542
16776601,23021
16778602,23575
16780604,23334
16782605,23318
16784607,23101
16786609,22358
16788609,22818
16790613,22588
16792615,22592
16794618,22803
16796621,22273
16798625,22846
16800627,22516
16802629,20981
16804630,21013
16806633,20553
16808635,21028
