9,22225
2010,22748
4012,22938
6014,22425
8015,23031
10016,22633
12017,22771
14018,22927
16020,22506
18022,22976
20025,22724
22026,23516
24028,24094
26032,23510
28034,24114
30034,23879
32035,23689
34036,24130
36036,23575
38039,24029
40042,23904
42042,24233
44042,24963
46043,24365
48044,24705
50044,24715
52046,24278
54067,24845
56071,24212
58072,24813
60075,24616
62076,24861
64077,25079
66081,24605
68083,25146
70084,24983
72087,24784
74087,25030
76089,24633
78093,25149
80096,25030
82098,25050
84101,25559
86104,25014
88104,25525
90105,25407
92107,25072
94108,25579
96110,25036
98111,25487
100111,25495
102114,25901
104116,26664
106117,26162
108120,26499
110122,26538
112124,26024
114126,26691
116129,26120
118131,26532
120135,26548
122139,26087
124141,26638
126141,26143
128141,26560
130143,26518
132145,26085
134147,26683
136148,26107
138150,26556
140150,26566
142153,26968
144156,27764
146157,27338
148158,27552
150162,27694
152165,27184
154166,27802
156169,27318
158172,27611
160174,27693
162175,27714
164179,28506
166182,28047
168183,28306
170186,28419
172186,27837
174188,28500
176191,28061
178191,28300
180194,28404
182195,28745
184198,29597
186198,29079
188200,29373
190201,29555
192204,28911
194204,29627
196208,29244
198211,29295
200211,29603
202214,30147
204216,31116
206219,30616
208221,30828
210224,30962
212225,30342
214226,31083
216229,30644
218232,30845
220235,30934
222238,30944
224241,31798
226244,31239
228245,31464
230245,31786
232248,31083
234250,31776
236252,31228
238253,31606
240253,31664
242254,31387
244258,32139
246259,31553
248259,31880
250260,32065
252260,31416
254263,32153
256266,31601
258269,31892
260271,32034
262275,33113
264279,33988
266281,33397
268282,33739
270285,33796
272286,33271
274286,33901
276288,33346
278289,33703
280290,33880
282292,34189
284296,35100
286297,34589
288299,34764
290300,35014
292304,34307
294307,35098
296308,34512
298308,34718
300309,34977
302310,35264
304313,36147
306316,35733
308318,35939
310321,36300
312323,35373
314323,36142
316324,35696
318326,35782
320330,36059
322334,35692
324337,36540
326337,36089
328337,36177
330340,36550
332342,35766
334342,36547
336342,36043
338344,36126
340346,36462
342346,36372
344349,37269
346352,36738
348354,36883
350355,37179
352358,36501
354361,37239
356365,36703
358368,36911
360368,37163
362369,36802
364371,37633
366373,37015
368375,37313
370379,37501
372381,36827
374381,37632
376381,36950
378382,37284
380383,37541
382386,35786
384386,36404
386386,35993
388390,36199
390390,36424
392391,35755
394395,36539
396396,35879
398397,36324
400397,36465
402401,34451
404404,35071
406407,34563
408407,34784
410409,34980
412411,34324
414415,35121
416416,34474
418419,34834
420421,34951
422422,33743
424422,34016
426425,33378
428426,33715
430427,33903
432428,33198
434430,33964
436430,33532
438430,33665
440430,33912
442433,32060
444437,31844
446439,31327
448442,31587
450443,31740
452445,31034
454447,31804
456450,31312
458452,31558
460456,31682
462459,30439
464463,30701
466466,30101
468468,30548
470471,30548
472474,30043
474475,30730
476478,30151
478480,30521
480482,30690
482482,29043
484484,28911
486487,28340
488489,28719
490492,28751
492494,28268
494495,28884
496495,28325
498498,28707
500499,28774
502502,27487
504505,27444
506507,26941
508509,27253
510511,27307
512514,26794
514517,27385
516520,26960
518520,27226
520520,27355
522523,26740
524527,27391
526529,27048
528531,27185
530533,27383
532536,26740
534537,27403
536538,27037
538539,27130
540543,27355
542545,26361
544549,26688
546551,26235
548551,26448
550553,26621
552557,26016
554561,26684
556561,26291
558564,26431
560567,26630
562570,25780
564573,26314
566574,25948
568576,25987
570579,26235
572581,25651
574583,26292
576585,26020
578587,25933
580590,26275
582594,25401
584595,26231
586596,26040
588597,26115
590600,26374
592602,25688
594605,26230
596606,26110
598608,25816
600610,26289
602611,25680
604612,26223
606613,26145
608615,25752
610615,26341
612617,25731
614618,26173
616618,26117
618619,25708
620623,26317
622624,25399
624625,25435
626627,25417
628628,25046
630628,25581
632629,25199
634629,25379
636629,25524
638633,24941
640633,25567
642635,25212
644637,25322
646640,25494
648643,24972
650644,25532
652644,25246
654645,25298
656647,25562
658650,24929
660653,25540
662654,25970
664655,26323
666657,26638
668659,25980
670660,26660
672661,26449
674661,26186
676664,26672
678664,25988
680665,26598
682668,26454
684670,26144
686671,26671
688675,26040
690676,26577
692679,26487
694680,26117
696683,26659
698686,26096
700690,26562
702692,26261
704694,25835
706696,26292
708698,25694
710702,26220
712702,26162
714704,25675
716706,26315
718707,25822
720709,26141
722712,26124
724714,25732
726715,26295
728717,25856
730720,25960
732720,26169
734720,25684
736724,26324
738726,25857
740726,26319
742726,26507
744729,26031
746732,26663
748734,26221
750735,26440
752736,26542
754737,25924
756741,26688
758744,26291
760744,26412
762748,26620
764748,25984
766749,26650
768749,26369
770750,26289
772754,26647
774757,25977
776758,26710
778758,26443
780759,26259
782759,26652
784759,26068
786762,26580
788765,26443
790769,26163
792772,26670
794775,26067
796775,26628
798775,26506
800775,26040
802776,26414
804776,25890
806777,26107
808780,26227
810780,25661
812784,26333
814788,25932
816788,26123
818789,26296
820789,25665
822789,26519
824792,26398
826793,26279
828794,26638
830796,26048
832797,26584
834798,26427
836800,26374
838800,26688
840803,26040
842804,26619
844807,26468
846807,26091
848807,26670
850811,26159
852812,26522
854814,26569
856815,26058
858815,26680
860815,26169
862816,26249
864818,26212
866818,25651
868819,26293
870823,25965
872823,25968
874823,26166
876825,25619
878826,26271
880829,26062
882831,25349
884833,25601
886836,24933
888838,25523
890841,25383
892842,25126
894843,25575
896843,24991
898846,25535
900849,25424
902849,24487
904851,24809
906852,24409
908852,24652
910852,24707
912856,24231
914858,24824
916862,24440
918862,24655
920863,24755
922864,24327
924867,25190
926868,24846
928868,25001
930868,25155
932868,24707
934870,25192
936872,24933
938876,24892
940876,25172
942879,24567
944879,25180
946879,24945
948879,24773
950880,25178
952883,24631
954885,25106
956886,25040
958889,24706
960891,25148
962895,24643
964896,25147
966900,25014
968902,24801
970906,25188
972907,24587
974908,25132
976908,24966
978911,24796
980911,25195
982911,24677
984913,25106
986913,25086
988914,24635
990918,25184
992921,24804
994922,25041
996922,25140
998922,24601
1000922,25192
1002922,24823
1004924,24952
1006927,25169
1008930,24593
1010932,25208
1012933,24924
1014934,24885
1016936,25172
1018936,24561
1020939,25236
1022941,23263
1024941,22633
1026943,22963
1028944,22416
1030945,22948
1032946,22879
1034948,22616
1036949,22981
1038950,22506
1040950,22951
1042953,22846
1044955,22560
1046956,23006
1048956,22623
1050960,22886
1052960,22942
1054961,22610
1056964,23039
1058966,22886
1060966,22811
1062967,23249
1064970,22766
1066970,23386
1068970,23128
1070972,23101
1072974,23358
1074977,22786
1076978,23357
1078982,23095
1080982,23071
1082985,22911
1084987,22102
1086990,22647
1088993,22398
1090993,22352
1092997,22616
1094998,22187
1097001,22614
1099001,22469
1101004,22338
1103007,22938
1105008,22481
1107008,22948
1109011,22864
1111011,22476
1113015,23004
1115018,22554
1117020,22906
1119024,22865
1121026,22472
1123027,23944
1125028,23701
1127028,23905
1129030,24034
1131032,23505
1133033,24124
1135036,23773
1137036,23854
1139036,24057
1141038,23525
1143038,25804
1145039,26074
1147040,25788
1149043,26333
1151043,25663
1153043,26334
1155044,26117
1157044,25701
1159045,26332
1161046,25823
1163046,27838
1165046,28418
1167049,27835
1169050,28511
1171050,28176
1173053,28302
1175057,28429
1177060,27857
1179063,28521
1181064,28069
1183067,27635
1185067,27748
1187067,27139
1189067,27734
1191067,27548
1193067,27371
1195068,27773
1197069,27163
1199070,27684
1201073,27610
1203074,25561
1205077,25609
1207081,25001
1209084,25535
1211084,25409
1213088,25143
1215090,25567
1217092,25033
1219092,25487
1221093,25481
1223096,25039
1225096,25601
1227099,25182
1229102,25468
1231103,25485
1233103,24956
1235105,25587
1237105,25204
1239109,25355
1241109,25527
1243111,22802
1245112,23019
1247113,22686
1249115,22770
1251118,22979
1253121,22418
1255122,22977
1257123,22779
1259126,22678
1261127,22933
1263129,21553
1265132,21892
1267135,21720
1269138,21526
1271142,21902
1273143,21413
1275143,21880
1277146,21778
1279148,21515
1281149,21924
1283152,20840
1285154,21115
1287156,21082
1289156,20699
1291158,21184
1293159,20817
1295159,21019
1297160,21100
1299163,20623
1301166,21156
1303169,20259
1305171,20309
1307172,20389
1309172,19933
1311173,20429
1313176,20255
1315178,20200
1317178,20435
1319180,19936
1321180,20467
1323182,20543
1325185,20493
1327187,20812
1329191,20330
1331194,20797
1333194,20695
1335196,20428
1337196,20763
1339196,20414
1341197,20675
1343199,20740
1345200,20326
1347200,20805
1349200,20511
1351200,20605
1353201,20771
1355202,20267
1357203,20798
1359203,20617
1361203,20515
1363203,20815
1365204,20313
1367205,20752
1369205,20664
1371206,20265
1373208,20849
1375211,20485
1377211,20687
1379212,20743
1381215,20285
1383215,21127
1385217,20885
1387218,21009
1389218,21128
1391221,20657
1393221,21156
1395222,21080
1397223,20898
1399223,21166
1401224,20645
1403226,21204
1405228,21023
1407228,20750
1409232,21150
1411235,20700
1413238,21112
1415238,21038
1417238,20703
1419241,21197
1421244,20740
1423246,20785
1425248,20731
1427250,20393
1429253,20815
1431256,20431
1433258,20744
1435258,20747
1437261,20281
1439261,20799
1441263,20489
1443265,20649
1445265,20791
1447269,20339
1449294,20839
1451295,20088
1453296,20735
1455299,20669
1457301,20411
1459301,20823
1461303,20469
1463304,20693
1465304,20731
1467304,20289
1469308,20795
1471308,20533
1473308,20573
1475309,20799
1477309,20210
1479309,20791
1481309,20640
1483310,20449
1485312,20831
1487314,20345
1489316,20757
1491318,20687
1493320,20377
1495322,20829
1497322,20442
1499325,20669
1501326,20707
1503327,21222
1505331,21933
1507334,21586
1509334,21782
1511335,21842
1513335,21370
1515336,21940
1517336,21650
1519339,21713
1521340,21916
1523343,21978
1525344,22662
1527348,22412
1529350,22373
1531354,22616
1533355,22064
1535355,22614
1537356,22434
1539356,22301
1541356,22648
1543357,18632
1545357,18582
1547357,18498
1549358,18282
1551360,18627
1553362,18231
1555365,18568
1557365,18534
1559367,18206
1561367,18636
1563371,11782
1565374,11230
1567378,11199
1569380,11022
1571382,11251
1573384,11100
1575386,11175
1577388,11196
1579388,10946
1581389,11242
1583392,18943
1585396,19912
1587397,20082
1589530,20065
1591532,19603
1593534,20033
1595535,19940
1597535,19737
1599535,20074
1601535,19719
1603538,43898
1605540,46994
1607541,46222
1609543,47110
1611543,46443
1613546,46730
1615548,46948
1617549,46331
1619550,47094
1621552,46411
1623553,63173
1625554,63189
1627554,63097
1629556,63192
1631558,63151
1633559,63141
1635562,63160
1637562,63095
1639566,62666
1641566,63135
1643570,63147
1645573,63168
1647575,63121
1649575,63159
1651578,63048
1653581,63162
1655584,63126
1657587,63127
1659588,63191
1661592,63191
1663593,48487
1665594,46074
1667595,45500
1669595,45486
1671595,45917
1673598,45174
1675601,45999
1677601,45441
1679601,45437
1681603,45946
1683605,9950
1685605,7458
1687605,7313
1689608,7399
1691611,7359
1693612,7313
1695616,7383
1697619,7346
1699620,7351
1701623,7395
1703625,5001
1705625,4889
1707627,4901
1709629,4849
1711629,4890
1713629,4845
1715629,4864
1717629,4897
1719631,4883
1721631,4897
1723633,13423
1725633,13928
1727635,14195
1729635,13957
1731637,14130
1733638,14134
1735640,13875
1737640,14177
1739640,14062
1741644,14094
1743644,19985
1745645,19918
1747646,20350
1749649,20315
1751652,20088
1753653,20446
1755657,19990
1757661,20412
1759662,20285
1761662,20006
1763663,21151
1765663,20745
1767666,21085
1769670,21102
1771673,20739
1773676,21182
1775676,20799
1777678,21040
1779680,21169
1781681,20627
1783684,20848
1785685,20538
1787686,20636
1789686,20764
1791688,20297
1793688,20782
1795688,20601
1797688,20543
1799688,20769
1801691,20312
1803694,20104
1805695,19961
1807695,19708
1809697,20088
1811700,19704
1813701,20048
1815702,19996
1817703,19624
1819706,20107
1821708,19747
1823711,20315
1825714,20383
1827718,19958
1829718,20471
1831719,20158
1833721,20298
1835722,20429
1837725,19926
1839726,20441
1841726,20285
1843729,20145
1845731,20435
1847731,19988
1849734,20423
1851735,20305
1853739,20113
1855742,20486
1857744,19967
1859748,20408
1861748,20313
1863750,20421
1865752,20824
1867753,20436
1869753,20708
1871754,20719
1873756,20329
1875759,20788
1877759,20474
1879761,20650
1881765,20780
1883768,21313
1885771,21910
1887774,21622
1889776,21771
1891777,21849
1893780,21339
1895781,21939
1897781,21685
1899783,21686
1901785,21928
1903787,21373
1905788,21868
1907790,21699
1909791,21643
1911792,21899
1913793,21387
1915795,21892
1917798,21732
1919799,21554
1921800,21939
1923802,20807
1925803,21081
1927805,21092
1929808,20673
1931810,21179
1933812,20815
1935812,21042
1937814,21073
1939815,20641
1941816,21211
1943818,22211
1945820,22504
1947824,22584
1949825,22091
1951825,22626
1953827,22303
1955828,22421
1957829,22624
1959830,22119
1961834,22588
1963834,22121
1965837,21965
1967838,22253
1969840,21733
1971842,22248
1973842,22095
1975845,21918
1977848,22270
1979848,21764
1981850,22229
1983852,22500
1985853,22186
1987857,22638
1989858,22191
1991859,22564
1993860,22533
1995861,22139
1997862,22710
1999862,22298
2001862,22480
2003862,22927
2005862,22419
2007865,22991
2009865,22715
2011866,22752
2013869,22985
2015872,22437
2017873,22896
2019876,22803
2021879,22772
2023880,24080
2025881,23529
2027885,24063
2029885,24150
2031885,23677
2033888,24136
2035890,23566
2037891,24072
2039892,23959
2041895,23661
2043897,24823
2045898,24324
2047899,24755
2049901,24710
2051901,24227
2053903,24851
2055907,24348
2057907,24635
2059908,24725
2061910,24218
2063913,25188
2065915,24830
2067918,25082
2069919,25099
2071919,24573
2073921,25190
2075921,24859
2077921,24963
2079923,25152
2081923,24562
2083925,25563
2085926,25246
2087926,25226
2089926,25599
2091928,24949
2093931,25547
2095931,25379
2097932,25110
2099932,25585
2101936,24993
2103937,26502
2105937,26574
2107939,26097
2109942,26681
2111942,26116
2113942,26565
2115944,26496
2117947,26115
2119948,26676
2121950,25964
2123951,26496
2125954,26590
2127957,25820
2129958,26682
2131958,26266
2133962,26462
2135965,26530
2137968,26030
2139971,26664
2141973,26185
2143976,27608
2145976,27703
2147977,27154
2149979,27785
2151981,27363
2153982,27502
2155982,27737
2157985,27132
2159988,27803
2161991,27413
2163993,28223
2165994,28412
2167996,27815
2169996,28467
2171999,28212
2174003,28177
2176007,28467
2178011,27813
2180014,28529
2182015,28271
2184018,29302
2186020,29581
2188022,28845
2190026,29630
2192028,29172
2194030,29384
2196031,29594
2198033,28883
2200034,29603
2202036,29465
2204039,30684
2206039,31040
2208040,30373
2210040,31079
2212040,30808
2214043,30766
2216043,31059
2218046,30331
2220048,31084
2222052,30794
2224053,31423
2226054,31774
2228056,31048
2230058,31758
2232059,31419
2234061,31353
2236061,31788
2238061,31100
2240061,31825
2242065,31501
2244068,31694
2246070,32063
2248072,31396
2250076,32003
2252077,31807
2254078,31757
2256080,32095
2258083,31403
2260083,32127
2262083,32033
2264085,33365
2266086,33965
2268086,33217
2270088,33891
2272090,33727
2274091,33366
2276092,34043
2278093,33253
2280093,33803
2282093,33875
2284095,34381
2286098,35105
2288102,33946
2290106,35012
2292107,34840
2294110,34495
2296112,35098
2298114,34377
2300115,34936
2302117,34911
2304120,35443
2306122,36186
2308124,35445
2310127,36046
2312131,35914
2314131,35525
2316135,36166
2318138,35435
2320140,36061
2322140,31300
2324144,4361
2326147,3468
2328150,3468
2330153,3447
2332156,3440
2334159,3417
2336161,3417
2338161,3434
2340164,3431
2342168,7940
2344171,35478
2346172,37207
2348173,36837
2350176,36781
2352179,37278
2354180,36467
2356182,37239
2358184,36787
2360185,36893
2362186,37329
2364190,36794
2366191,37601
2368191,37179
2370191,37496
2372191,37576
2374191,36802
2376191,37560
2378191,37253
2380193,37090
2382194,37315
2384198,35790
2386199,36464
2388200,36214
2390202,36032
2392204,36504
2394207,35743
2396209,36484
2398210,36093
2400212,36033
2402214,36112
2404215,34373
2406216,35056
2408216,34649
2410220,34647
2412220,35017
2414222,34237
2416224,35045
2418224,34634
2420225,34557
2422227,34714
2424228,33228
2426230,33936
2428234,33628
2430234,33470
2432237,33883
2434239,33242
2436240,33928
2438243,33594
2440246,33600
2442248,33256
2444251,31124
2446252,31745
2448252,31498
2450255,31373
2452258,31726
2454261,31054
2456263,31775
2458265,31375
2460269,31481
2462272,31411
2464272,29949
2466272,30689
2468272,30447
2470273,30172
2472274,30736
2474277,30003
2476278,30656
2478281,30476
2480285,30099
2482286,30205
2484288,28282
2486288,28777
2488289,28670
2490290,28281
2492293,28868
2494296,28264
2496298,28718
2498300,28726
2500303,28252
2502303,28483
2504307,26986
2506309,27252
2508309,27311
2510313,26783
2512316,27431
2514317,27037
2516317,27211
2518317,27363
2520318,26756
2522319,27414
2524321,27147
2526321,27036
2528325,27423
2530327,26797
2532327,27400
2534328,27192
2536329,26933
2538329,27422
2540332,26796
2542334,27359
2544335,27337
2546337,26888
2548340,27374
2550343,26125
2552345,26566
2554348,26516
2556350,26085
2558354,26682
2560356,26101
2562359,26563
2564359,26551
2566363,26075
2568367,26627
2570368,25838
2572369,26137
2574371,26218
2576371,25694
2578372,26372
2580373,25872
2582377,26104
2584379,26193
2586381,25654
2588381,26320
2590381,25992
2592382,25938
2594385,26317
2596386,25671
2598389,26293
2600389,26129
2602390,25920
2604392,26361
2606393,25694
2608393,26230
2610395,26126
2612395,25717
2614396,26312
2616399,25808
2618399,26141
2620399,26201
2622400,25671
2624402,26333
2626404,25874
2628404,25984
2630404,25529
2632405,24967
2634405,25558
2636408,25265
2638410,25270
2640414,25552
2642414,24907
2644414,25550
2646414,25365
2648416,25214
2650420,25568
2652422,24983
2654425,25551
2656426,25308
2658427,25152
2660427,25566
2662429,24990
2664432,25517
2666433,25423
2668434,25079
2670435,26637
2672437,26081
2674440,26568
2676442,26532
2678444,26053
2680444,26664
2682444,26242
2684445,26506
2686446,26594
2688446,25989
2690446,26658
2692446,26355
2694448,26342
2696449,26631
2698449,26001
2700450,26658
2702450,26435
2704453,26282
2706454,26665
2708455,26014
2710455,26128
2712456,26123
2714458,25753
2716459,26342
2718462,25782
2720462,26135
2722462,26185
2724463,25657
2726464,26287
2728468,25885
2730468,26059
2732470,26291
2734473,25667
2736475,26309
2738475,25924
2740475,26078
2742475,26245
2744477,25617
2746477,26277
2748478,26077
2750479,26272
2752479,26644
2759963,26506
2761963,25962
2763965,26671
2765966,26273
2767966,26438
2769966,26605
2771969,25970
2773972,26634
2775975,26336
2777976,26376
2779978,26551
2781981,25988
2783983,26656
2785987,26384
2787990,26434
2789990,26602
2791993,26018
2793994,26667
2795998,26253
2798001,26463
2800001,26619
2802001,25971
2804001,26694
2806004,26405
2808007,26313
2810008,26349
2812009,25609
2814012,26291
2816013,26053
2818017,25872
2820020,26302
2822021,25706
2824021,26241
2826021,26085
2828021,25774
2830024,26670
2832027,26101
2834029,26562
2836032,26456
2838032,26059
2840032,26680
2842032,26202
2844032,26502
2846036,26603
2848038,26005
2850038,26686
2852039,26350
2854041,26383
2856043,26590
2858044,25981
2860048,26660
2862051,26273
2864054,26400
2866054,26647
2868056,25986
2870056,26299
2872058,26072
2874059,25848
2876059,26317
2878059,25698
2880060,26223
2882063,26065
2884065,25744
2886065,26339
2888068,25808
2890070,25506
2892071,25500
2894073,24969
2896073,25549
2898075,25224
2900077,25338
2902080,25548
2904083,24906
2906086,25581
2908087,25282
2910088,24605
2912090,24821
2914092,24192
2916093,24800
2918095,24565
2920097,24432
2922099,24829
2924102,24300
2926102,24694
2928102,24683
2930105,24663
2932108,25188
2934110,24665
2936110,25090
2938110,25139
2940112,24573
2942113,25188
2944113,24823
2946113,25099
2948114,25132
2950117,24618
2952120,25198
2954123,24945
2956126,24969
2958128,25105
2960129,24584
2962132,25196
2964136,24899
2966138,24960
2968141,25186
2970144,24603
2972147,25195
2974148,24894
2976148,24899
2978149,25184
2980151,24685
2982152,25296
2984154,24995
2986155,24807
2988156,25210
2990156,24625
2992157,25096
2994157,25048
2996161,24656
2998162,25202
3000165,24728
3002165,25014
3004166,25101
3006167,24653
3008168,25202
3010168,24882
3012168,24955
3014169,25198
3016170,24612
3018173,25230
3020175,24913
3022177,24879
3024178,25167
3026179,24599
3028183,25166
3030183,22882
3032187,22714
3034189,22972
3036191,22424
3038191,22942
3040194,22818
3042197,22642
3044199,22978
3046200,22477
3048201,22951
3050203,22816
3052206,22619
3054208,23033
3056208,22516
3058212,22928
3060213,22882
3062215,22516
3064215,22993
3066216,22651
3068219,22861
3070221,23229
3072222,22814
3074224,23376
3076224,23118
3078227,23131
3080229,23322
3082229,22802
3084232,23341
3086234,23099
3088238,23112
3090242,22610
3092244,22054
3094247,22661
3096248,22357
3098249,22402
3100249,22628
3102253,22092
3104255,22656
3106256,22490
3108256,22255
3110259,22975
3112261,22518
3114262,22934
3116263,22858
3118264,22549
3120265,22997
3122268,22583
3124271,22880
3126271,22906
3128272,22466
3130274,24042
3132278,23709
3134280,23951
3136281,23994
3138282,23509
3140285,24143
3142287,23765
3144289,23951
3146290,24002
3148290,23518
3150294,26143
3152298,25994
3154301,25992
3156303,26299
3158304,25696
3160307,26249
3162309,26041
3164312,25969
3166312,26338
3168314,25679
3170317,28363
3172318,28292
3174321,27951
3176323,28463
3178324,27828
3180325,28457
3182327,28284
3184328,28012
3186328,28513
3188330,27925
3190333,27694
3192334,27653
3194337,27189
3196339,27809
3198339,27229
3200341,27654
3202342,27696
3204344,27173
3206344,27791
3208344,27355
3210348,25543
3212349,25473
3214353,25020
3216353,25563
3218356,25128
3220359,25419
3222361,25479
3224363,24965
3226365,25571
3228365,25185
3230367,25357
3232371,25520
3234373,24964
3236373,25581
3238374,25326
3240375,25306
3242375,25770
3244378,24923
3246380,25553
3248380,25314
3250382,22838
3252384,22985
3254386,22442
3256386,22967
3258390,22764
3260394,22624
3262395,23012
3264395,22456
3266399,22984
3268403,22841
3270405,21588
3272406,21930
3274409,21515
3276411,21864
3278414,21794
3280415,21419
3282417,21911
3284421,21479
3286422,21783
3288423,21842
3290426,20721
3292426,21158
3294430,20849
3296432,21002
3298435,21108
3300436,20659
3302437,21197
3304437,20974
3306440,20879
3308441,21098
3310444,19968
3312448,20431
3314448,20251
3316449,20098
3318450,20455
3320453,20050
3322454,20394
3324456,20360
3326458,19985
3328459,18658
3330459,3937
3332459,3462
3334462,3446
3336463,3444
3338463,3411
3340463,3423
3342465,3436
3344467,3428
3346467,3437
3348468,4421
3350470,20148
3352470,20217
3354474,20829
3356476,20505
3358480,20725
3360483,20716
3362486,20239
3364487,20799
3366491,20443
3368492,20672
3370493,20750
3372496,20303
3374498,20871
3376499,20542
3378499,20587
3380500,20800
3382503,20266
3384505,20781
3386505,20617
3388507,20523
3390507,21161
3392507,20682
3394509,21151
3396512,21017
3398514,20849
3400515,21148
3402519,20739
3404520,21125
3406522,21013
3408522,20639
3410525,21164
3412526,20835
3414528,21055
3416528,21118
3418528,20625
3420530,21197
3422530,20896
3424530,20924
3426530,21178
3428530,20601
3430532,20827
3432534,20645
3434535,20551
3436535,20839
3438538,20365
3440539,20759
3442540,20684
3444541,20306
3446543,20786
3448547,20461
3450549,20787
3452550,20731
3454552,20323
3456553,20813
3458553,20438
3460555,20701
3462558,20759
3464561,20300
3466563,20813
3468565,20510
3470567,20619
3472567,20791
3474569,20271
3476573,20832
3478574,20619
3480576,20612
3482577,20783
3484577,20286
3486577,20763
3488577,20656
3490578,20450
3492580,20836
3494583,20411
3496583,20749
3498584,20707
3500584,20314
3502588,20831
3504591,20454
3506592,20692
3508592,20859
3510595,21345
3512598,21953
3514602,21608
3516605,21747
3518607,22002
3520608,21386
3522610,21954
3524613,21638
3526614,21724
3528614,22004
3530615,22076
3532616,22601
3534617,22454
3536620,22298
3538620,22625
3540622,22100
3542622,22626
3544623,22480
3546626,22269
3548627,21504
3550630,18299
3552632,18577
3554635,18500
3556636,18279
3558639,18657
3560641,18266
3562642,18532
3564643,18550
3566643,18150
3568644,16534
3570647,11256
3572648,11206
3574648,11226
3576650,11002
3578651,11261
3580651,11079
3582654,11156
3584656,11208
3586657,10945
3588657,13387
3590657,19779
3592657,19711
3594657,20092
3596657,19796
3598657,19989
3600659,20058
3602659,19615
3604663,20073
3606664,19807
3608665,24683
3610667,46466
3612670,46288
3614673,46980
3616674,46696
3618675,46453
3620675,47160
3622678,46233
3624680,46971
3626684,46518
3628684,55658
3630687,63245
3632690,63177
3634692,63249
3636693,63189
3638694,63132
3640697,63245
3642697,63292
3644698,63184
3646699,63255
3648701,63150
3650701,63111
3652704,63233
3654707,63014
3656708,63194
3658709,63212
3660709,63125
3662710,63195
3664713,63229
3666715,63168
3668719,63116
3670721,63340
3672723,63200
3674726,63175
3676726,63323
3678727,63061
3680727,63160
3682730,63252
3684732,63202
3686732,63148
3688734,60332
3690736,9160
3692739,7385
3694739,7429
3696743,7342
3698746,7355
3700748,7410
3702748,7297
3704749,7398
3706749,7377
3708749,6641
3710751,4961
3712752,4847
3714753,4888
3716753,4901
3718754,4870
3720757,4891
3722758,4873
3724759,4853
3726760,4910
3728763,8001
3730766,13855
3732767,14172
3734769,13897
3736770,14148
3738770,14127
3740774,13851
3742776,14208
3744778,14007
3746781,14084
3748782,16064
3750783,19849
3752783,20472
3754784,20305
3756784,20088
3758784,20493
3760787,20142
3762788,20361
3764790,20379
3766791,19971
3768791,20661
3770791,20932
3772792,20988
3774794,21150
3776798,20592
3778801,20972
3780801,20969
3782801,20861
3784801,21166
3786801,20680
3788801,20949
3790804,20696
3792807,20413
3794811,20839
3796811,20391
3798811,20728
3800814,20704
3802816,20367
3804820,20841
3806824,20471
3808824,20391
3810827,20073
3812829,19581
3814831,20122
3816834,19852
3818834,19920
3820836,20080
3822837,19589
3824841,20126
3826844,19934
3828846,19984
3830849,20464
3832852,19952
3834852,20393
3836853,20319
3838854,20124
3840857,20524
3842860,20083
3844863,20369
3846863,20362
3848863,19985
3850865,20435
3852866,20121
3854867,20321
3856868,20437
3858872,19928
3860876,20536
3862877,20191
3864877,20255
3866879,20446
3868879,20078
3870883,20772
3872885,20613
3874888,20523
3876890,20801
3878891,20292
3880894,20753
3882897,20545
3884901,20481
3886901,20835
3888902,20747
3890905,21780
3892905,21814
3894905,21414
3896905,21898
3898906,21599
3900908,21779
3902908,21878
3904909,21389
3906912,21928
3908914,21659
3910917,21695
3912919,21925
3914923,21455
3916924,21916
3918924,21676
3920924,21571
3922926,21928
3924927,21382
3926928,21876
3928931,21411
3930932,20763
3932932,21148
3934932,20755
3936935,21080
3938936,21033
3940939,20673
3942940,21184
3944943,20823
3946945,21038
3948945,21833
3950946,22007
3952946,22623
3954949,22356
3956950,22280
3958951,22592
3960953,22087
3962955,22583
3964956,22436
3966957,22335
3968957,22468
3970959,21858
3972962,22201
3974962,22352
3976962,21815
3978963,22309
3980963,21968
3982966,22201
3984966,22172
3986968,21716
3988969,22441
3990972,22300
3992973,22429
3994975,22626
3996976,22035
3998976,22664
4000980,22390
4002981,22396
4004982,22629
4006986,22086
4008990,22762
4010991,22784
4012993,22662
4014995,22943
4016995,22438
4018996,22967
4020998,22812
4023000,22620
4025002,22988
4027003,22422
4029004,23358
4031004,23967
4033008,23552
4035011,24150
4037012,23753
4039012,23961
4041015,24024
4043015,23605
4045015,24179
4047016,23728
4049019,24317
4051019,24765
4053022,24180
4055025,24825
4057027,24444
4059029,24591
4061031,24794
4063035,24205
4065037,24847
4067038,24441
4069039,24777
4071040,25031
4073040,24599
4075040,25163
4077041,24989
4079044,24799
4081045,25206
4083049,24639
4085049,25104
4087050,25046
4089052,24885
4091052,25590
4093055,25044
4095057,25497
4097057,25508
4099058,25026
4101062,25593
4103063,25179
4105066,25415
4107066,25505
4109067,25497
4111069,26698
4113072,26304
4115072,26434
4117075,26698
4119077,25979
4121081,26689
4123085,26243
4125086,26444
4127090,26603
4129090,25997
4131094,26624
4133096,26271
4135098,26414
4137102,26629
4139102,26167
4141105,26704
4143107,26304
4145110,26492
4147114,26630
4149116,26583
4151118,27787
4153121,27360
4155123,27564
4157127,27702
4159129,27117
4161132,27835
4163132,27412
4165136,27543
4167137,27757
4169141,27480
4171141,28541
4173142,28136
4175144,28276
4177145,28416
4179145,27836
4181145,28487
4183147,28156
4185147,28201
4187150,28429
4189151,28555
4191151,29561
4193154,29213
4195158,29248
4197159,29593
4199159,28939
4201159,29569
4203161,29356
4205161,29179
4207164,29634
4209166,29898
4211168,31030
4213169,30808
4215173,30584
4217173,31099
4219173,30392
4221177,31015
4223178,30853
4225178,30538
4227181,31048
4229182,30874
4231183,31716
4233185,31507
4235186,31224
4237189,31801
4239189,31059
4241190,31744
4243193,31520
4245195,31279
4247197,31877
4249198,31351
4251200,32061
4253204,31848
4255206,31620
4257206,32168
4259206,31435
4261206,32069
4263206,31903
4265208,31633
4267208,32202
4269211,32640
4271213,33873
4273215,33707
4275218,33371
4277222,33957
4279223,33234
4281224,34044
4283225,33734
4285229,33375
4287232,33996
4289236,33974
4291238,35036
4293238,34840
4295239,34501
4297240,35057
4299243,34682
4301245,34954
4303246,34874
4305249,34402
4307250,35117
4309254,35082
4311258,36068
4313259,35946
4315260,35415
4317264,36169
4319268,35389
4321269,36040
4323271,35960
4325271,35439
4327271,36179
4329304,35662
4331308,36466
4333309,35997
4335309,36169
4337311,36496
4339315,35760
4341317,36528
4343318,36079
4345321,36263
4347322,36481
4349325,36201
4351327,37195
4353328,36847
4355328,36797
4357329,37199
4359331,36464
4361333,37509
4363336,36849
4365340,36773
4367341,37245
4369345,36673
4371347,37616
4373348,37136
4375350,37240
4377350,37709
4379350,36841
4381351,37582
4383352,37181
4385352,37036
4387353,37565
4389356,36032
4391359,36483
4393360,35985
4395361,35965
4397364,36571
4399367,35752
4401367,36470
4403367,36247
4405371,35932
4407374,36524
4409376,34682
4411377,35000
4413378,34788
4415380,34592
4417382,35081
4419383,34289
4421385,35001
4423386,34756
4425388,34481
4427389,35097
4429390,33526
4431391,33859
4433394,33664
4435397,33433
4437398,33926
4439399,33234
4441400,33856
4443402,33635
4445405,33240
4447407,34032
4449409,31597
4451412,31748
4453413,31597
4455414,31280
4457414,31796
4459416,31152
4461417,31710
4463418,31522
4465421,31213
4467425,31810
4469427,9621
4471429,3604
4473432,3444
4475436,3436
4477437,3430
4479437,3448
4481438,3428
4483439,3409
4485439,3425
4487439,3439
4489440,22618
4491441,28091
4493443,28885
4495444,28286
4497445,28711
4499445,28783
4501447,28291
4503447,28869
4505447,28392
4507449,28733
4509449,27654
4511452,26690
4513453,27415
4515454,26988
4517454,27126
4519455,27345
4521456,26717
4523457,27416
4525458,27101
4527459,27109
4529460,27389
4531462,26712
4533466,27400
4535466,27192
4537470,27002
4539471,27370
4541474,26741
4543476,27378
4545479,27128
4547482,27093
4549485,26850
4551485,25986
4553487,26614
4555489,26386
4557493,26287
4559496,26642
4561497,25976
4563501,26621
4565501,26427
4567503,26285
4569504,63117
4571507,63237
4573509,63174
4575511,63235
4577512,63255
4579515,63139
4581517,63208
4583520,63231
4585521,63127
4587524,63201
4589526,38023
4591527,26602
4593530,26099
4595531,25848
4597533,26317
4599534,25742
4601535,26175
4603537,26157
4605538,25718
4607538,26287
4609541,25828
4611543,26138
4613545,26185
4615545,25675
4617546,26300
4619546,26008
4621547,25983
4623549,26275
4625550,25617
4627551,26192
4629553,26090
4631556,25902
4633558,25761
4635559,25035
4637559,25475
4639561,25420
4641565,25014
4643569,25584
4645570,25016
4647572,25484
4649573,25483
4651576,25044
4653576,25587
4655580,25082
4657581,25355
4659583,25485
4661584,24987
4663586,25625
4665587,25226
4667591,25332
4669591,25535
4671593,24973
4673595,26335
4675597,26363
4677598,26351
4679602,26663
4681602,25928
4683603,26638
4685603,26399
4687603,26243
4689607,26912
4691609,25996
4693613,26646
4695614,26472
4697615,26233
4699617,26662
4701620,26041
4703622,26588
4705625,26487
4707625,26155
4709627,26715
4711628,26137
4713629,26222
4715629,26181
4717629,25706
4719629,26259
4721631,25797
4723633,26171
4725633,26244
4727634,25752
4729637,26301
4731639,25934
4733641,26054
4735641,26237
4737642,25646
4739644,26279
4741645,25980
4743645,25980
4745647,26315
4747647,25694
4749649,26241
4751649,26102
4753651,26038
4755652,26662
4757654,26080
4759656,26583
4761658,26525
4763660,26126
4765661,26656
4767665,26099
4769666,26539
4771666,26519
4773668,26051
4775669,26652
4777670,26237
4779673,26450
4781676,26592
4783677,26022
4785680,26678
4787682,26279
4789682,26422
4791682,26630
4793684,26000
4795688,26693
4797688,26369
4799691,26247
4801692,26664
4803695,25991
4805696,26640
4807698,26424
4809701,26268
4811703,26678
4813706,25732
4815707,26253
4817708,26069
4819710,25836
4821712,26315
4823713,25716
4825717,26158
4827717,26117
4829717,25758
4831720,26325
4833722,26059
4835722,26504
4837722,26571
4839722,26013
4841724,26658
4843725,26548
4845728,26479
4847728,26539
4849730,26032
4851731,26687
4853734,26309
4855735,26402
4857735,26666
4859738,26016
4861741,26654
4863742,26398
4865743,26265
4867743,26672
4869747,26002
4871750,26630
4873752,26041
4875754,25904
4877757,26286
4879758,25701
4881759,26213
4883759,26079
4885759,25677
4887759,26329
4889759,25810
4891759,26153
4893762,25601
4895762,24985
4897762,25526
4899766,25149
4901767,25426
4903768,25537
4905769,24952
4907769,25547
4909772,25296
4911774,25334
4913776,24878
4915780,24204
4917781,24829
4919782,24527
4921783,24585
4923784,24775
4925785,24206
4927786,24821
4929789,24519
4931793,24527
4933795,25130
4935797,24583
4937799,25190
4939803,24909
4941807,24973
4943810,25150
4945810,24571
4947811,25137
4949814,25022
4951816,24740
4953819,25103
4955820,24609
4957824,25187
4959828,24971
4961830,24821
4963831,25182
4965831,24599
4967835,25158
4969837,25030
4971839,24801
4973841,25210
4975842,24612
4977844,25139
4979847,25014
4981849,24713
4983852,25221
4985853,24645
4987854,25114
4989858,24991
4991861,24687
4993864,25221
4995865,24703
4997868,25098
4999869,25034
5001869,24705
5003871,25184
5005871,24689
5007874,25110
5009874,25103
5011874,24523
5013874,25208
5015876,24874
5017878,24997
5019880,25174
5021883,24597
5023885,25256
5025888,24817
5027888,25022
5029890,25132
5031892,24601
5033893,23414
5035894,22670
5037896,22820
5039897,22930
5041899,22353
5043899,22955
5045901,22746
5047904,22602
5049904,22922
5051904,22427
5053907,22949
5055910,22783
5057912,22660
5059912,22984
5061913,22450
5063913,22886
5065916,22816
5067918,22504
5069920,23016
5071923,22428
5073925,23273
5075925,23275
5077926,22876
5079928,23406
5081930,22976
5083933,23261
5085935,23293
5087937,22818
5089940,23397
5091942,22951
5093944,22598
5095945,22596
5097947,22046
5099949,22634
5101950,22358
5103952,22427
5105953,22596
5107955,22111
5109955,22624
5111956,22466
5113956,22540
5115959,23007
5117960,22533
5119963,22953
5121963,22888
5123965,22452
5125966,22961
5127967,22580
5129967,22870
5131970,22961
5133972,23356
5135973,24147
5137973,23857
5139977,23899
5141979,24051
5143981,23528
5145983,24172
5147983,23934
5149983,23811
5151985,24055
5153986,25312
5155986,26197
5157990,26114
5159990,25853
5161991,26299
5163993,25579
5165996,26237
5167998,26095
5170002,25808
5172002,26259
5174002,27640
5176004,28310
5178006,28376
5180006,27855
5182009,28492
5184011,28023
5186015,28378
5188019,28394
5190019,27878
5192021,28481
5194024,27472
5196025,27655
5198026,27728
5200029,27172
5202031,27804
5204033,27329
5206036,27624
5208037,27692
5210037,27099
5212040,27793
5214042,25523
5216043,25329
5218045,25525
5220046,24933
5222047,25455
5224050,25288
5226050,25218
5228054,25553
5230057,24969
5232060,25593
5234062,25326
5236065,25290
5238067,25551
5240069,24913
5242073,25552
5244073,25295
5246074,25182
5248075,25517
5250077,24977
5252079,25508
5254083,23071
5256084,22626
5258085,23007
5260088,22505
5262090,22929
5264093,22796
5266093,22518
5268094,22980
5270094,22553
5272097,22956
5274101,21945
5276103,21422
5278105,21968
5280109,21525
5282112,21830
5284113,21814
5286117,21407
5288118,21739
5290118,21632
5292119,21724
5294119,21226
5296121,20638
5298123,21134
5300125,20964
5302126,20931
5304130,21165
5306132,20638
5308132,21132
5310132,20983
5312135,20867
5314138,20560
5316140,19973
5318142,20427
5320142,20309
5322146,20055
5324149,20474
5326151,20060
5328153,20389
5330154,20363
5332157,19966
5334160,20775
5336162,20453
5338163,20680
5340164,20738
5342165,20298
5344166,20832
5346167,20601
5348168,20583
5350169,20773
5352170,20281
5354174,20804
5356175,20612
5358177,20538
5360181,20739
5362184,20262
5364187,20807
5366189,20623
5368191,20499
5370191,20799
5372194,20321
5374197,20775
5376198,20651
5378198,20349
5380198,20789
5382201,20443
5384202,20726
5386202,20713
5388203,20273
5390205,20787
5392207,20467
5394211,21002
5396211,21223
5398212,20619
5400213,21164
5402215,20927
5404218,20948
5406219,21148
5408221,20589
5410222,21127
5412222,20950
5414225,20838
5416227,21175
5418227,20675
5420227,21105
5422230,21033
5424232,20787
5426232,21178
5428232,20820
5430235,21050
5432238,21021
5434240,20321
5436241,20811
5438243,20497
5440245,20667
5442247,20733
5444249,20260
5446250,20811
5448251,20572
5450255,20597
5452255,20813
5454256,20289
5456257,20777
5458260,20607
5460262,20513
5462262,20819
5464262,20360
5466262,20752
5468262,20718
5470265,20341
5472269,20842
5474269,20433
5476269,20677
5478272,20763
5480275,20270
5482275,20833
5484279,20507
5486280,20667
5488282,20775
5490284,20247
5492286,20795
5494287,20553
5496287,20521
5498287,20808
5500287,20289
5502291,20738
5504294,20654
5506296,20517
5508298,20807
5510298,20305
5512300,20789
5514301,21678
5516301,21434
5518301,21924
5520305,21473
5522307,21836
5524308,21842
5526309,21399
5528310,21921
5530310,21606
5532314,21711
5534316,22541
5536318,21935
5538321,22672
5540324,22368
5542324,22390
5544324,22586
5546326,22059
5548327,22619
5550329,22376
5552329,22290
5554332,18925
5556335,18174
5558336,18606
5560339,18432
5562340,18392
5564343,18600
5566343,18239
5568345,18544
5570347,18511
5572349,18260
5574351,11830
5576351,11048
5578352,11216
5580353,11207
5582356,11035
5584357,11220
5586361,11115
5588362,11174
5590365,11226
5592369,10974
5594373,19433
5596373,19843
5598374,19841
5600376,20076
5602378,19569
5604381,20073
5606382,19942
5608383,19936
5610384,20060
5612384,19637
5614385,44906
5616386,47044
5618389,46270
5620393,47117
5622394,46657
5624394,46643
5626395,47012
5628397,46294
5630397,47098
5632397,46419
5634397,63151
5636400,63159
5638402,63247
5640402,63259
5642403,63085
5644405,63211
5646406,63215
5648406,63175
5650407,63192
5652411,63117
5654414,63193
5656414,63243
5658415,63442
5660416,63212
5662416,63259
5664418,63237
5666419,63176
5668419,63216
5670422,63233
5672424,63149
5674426,47798
5676426,45941
5678430,45727
5680430,45308
5682433,46161
5684433,45235
5686436,45864
5688436,45759
5690438,45232
5692438,46064
5694442,9983
5696445,7484
5698449,7338
5700450,7393
5702450,7396
5704453,7245
5706453,7415
5708454,7329
5710456,7302
5712460,7361
5714461,5042
5716461,4905
5718464,4867
5720466,4800
5722468,4882
5724469,4869
5726471,4893
5728474,4898
5730477,4850
5732477,4885
5734478,13646
5736481,13803
5738481,14212
5740483,14027
5742486,14045
5744488,14159
5746489,13875
5748491,14194
5750494,14073
5752494,14019
5754495,20126
5756498,20069
5758499,20339
5760503,20343
5762503,19976
5764503,20409
5766504,20162
5768505,20317
5770505,20386
5772507,19900
5774510,21176
5776510,20950
5778513,20924
5780513,21168
5782516,20650
5784517,21122
5786518,21024
5788521,20780
5790524,21164
5792526,20690
5794530,20783
5796530,20656
5798530,20336
5800533,20851
5802536,20427
5804537,20700
5806538,20704
5808542,20318
5810545,20830
5812546,20439
5814548,20058
5816550,19982
5818551,19578
5820554,20065
5822557,19771
5824558,19971
5826558,20032
5828558,19575
5830561,20119
5832562,19866
5834564,20246
5836565,20435
5838565,19791
5840567,20502
5842571,20264
5844575,20180
5846577,20441
5848581,19958
5850583,20485
5852584,20239
5854586,20195
5856590,20419
5858593,19936
5860594,20455
5862594,20309
5864595,20120
5866595,20597
5868595,20036
5870597,20351
5872600,20353
5874602,20307
5876603,20808
5878607,20466
5880609,20693
5882609,20729
5884609,20268
5886611,20773
5888614,20567
5890614,20728
5892617,20764
5894618,21257
5896621,21910
5898623,21678
5900623,21622
5902624,21947
5904626,21395
5906626,21854
5908626,21784
5910628,21417
5912629,21904
5914630,21548
5916630,21818
5918631,21830
5920631,21419
5922632,21940
5924635,21622
5926636,21742
5928637,21865
5930638,21190
5932640,21916
5934643,20966
5936643,20974
5938644,21081
5940646,20610
5942646,21157
5944648,20974
5946649,20817
5948651,21149
5950651,20676
5952654,21150
5954657,22412
5956658,22204
5958659,22620
5960660,22157
5962663,22497
5964667,22516
5966670,22169
5968674,22627
5970675,22143
5972679,22539
5974679,22203
5976680,21750
5978682,22288
5980683,21892
5982686,22131
5984689,22189
5986692,21833
5988695,22295
5990697,21886
5992697,22119
5994698,22567
5996699,22083
5998699,22633
6000700,22352
6002704,22390
6004708,22632
6006708,22082
6008711,22602
6010715,22347
6012717,22423
6014720,22941
6016720,22428
6018721,22924
6020724,22818
6022726,22692
6024729,22961
6026733,22444
6028736,22964
6030738,22654
6032738,22718
6034740,24060
6036742,23557
6038742,24064
6040742,24077
6042743,23597
6044743,24124
6046743,23721
6048747,24174
6050747,24035
6052749,23552
6054750,24799
6056754,24401
6058757,24685
6060757,24775
6062757,24196
6064757,24815
6066758,24475
6068759,24597
6070760,24810
6072761,24224
6074764,25171
6076767,24901
6078770,24933
6080770,25169
6082770,24599
6084771,25130
6086772,24970
6088775,24765
6090777,25198
6092778,24640
6094781,25484
6096781,25423
6098781,25048
6100783,25584
6102786,25052
6104788,25477
6106790,25435
6108791,25014
6110795,25592
6112797,25314
6114798,26454
6116798,26614
6118800,25994
6120800,26666
6122800,26293
6124800,26420
6126803,26642
6128805,26222
6130807,26660
6132811,26348
6134813,26353
6136817,26624
6138817,26037
6140817,26616
6142817,26422
6144817,26151
6146821,26628
6148821,26086
6150824,26650
6152824,26660
6154826,27155
6156829,27771
6158829,27273
6160831,27658
6162833,27658
6164835,27189
6166838,28011
6168840,27325
6170841,27598
6172841,24495
6174844,4145
6176846,3442
6178847,3445
6180848,3426
6182851,3411
6184853,3405
6186854,3426
6188854,3421
6190855,3408
6192858,5832
6194860,28404
6196861,29297
6198862,29537
6200864,28907
6202867,29609
6204869,29232
6206870,29320
6208873,29537
6210875,28921
6212877,29701
6214879,30650
6216879,30732
6218879,30899
6220879,30365
6222882,31026
6224885,30786
6226885,30564
6228885,31047
6230885,30365
6232885,31126
6234889,31579
6236889,31230
6238889,31795
6240890,31126
6242890,31700
6244893,31592
6246895,31183
6248897,31812
6250899,31144
6252902,31754
6254906,31915
6256906,31531
6258906,32122
6260910,31453
6262912,32051
6264914,31977
6266916,31554
6268919,32177
6270920,31499
6272920,32390
6274921,33555
6276924,33258
6278927,33993
6280929,33287
6282930,33835
6284931,33818
6286935,33320
6288939,33994
6290943,33299
6292944,34066
6294945,34927
6296947,34409
6298950,35097
6300950,34449
6302953,34922
6304955,34878
6306956,34413
6308959,35102
6310960,34333
6312964,35156
6314964,35915
6316968,35465
6318971,36176
6320972,35452
6322973,36015
6324973,35609
6326976,35483
6328978,36167
6330981,35455
6332983,36105
6334985,36269
6336985,35888
6338988,36473
6340988,35797
6342991,36392
6344991,36293
6346994,35892
6348998,36546
6351001,35848
6353001,36572
6355001,36953
6357002,36561
6359004,37276
6361007,36485
6363008,37132
6365010,37051
6367010,36574
6369010,37320
6371012,36492
6373015,37227
6375018,37416
6377020,36959
6379021,37643
6381021,36815
6383023,37527
6385024,37327
6387027,36997
6389027,37618
6391028,36902
6393028,37247
6395028,36356
6397029,35838
6399029,36546
6401033,35783
6403033,36340
6405034,36412
6407035,35808
6409038,36602
6411038,35882
6413042,36021
6415042,34936
6417044,34405
6419047,35150
6421049,34474
6423051,34911
6425052,34930
6427052,34353
6429055,35081
6431055,34477
6433058,34671
6435060,33879
6437060,33189
6439061,33984
6441061,33498
6443061,33636
6445063,33887
6447064,33191
6449065,33910
6451067,33649
6453071,32759
6455071,31816
6457071,31070
6459073,31754
6461074,31505
6463077,31291
6465079,31803
6467080,31070
6469080,31737
6471082,31518
6473083,30888
6475084,30700
6477084,30054
6479085,30557
6481088,30494
6483090,30062
6485090,30711
6487093,30101
6489093,30518
6491096,30545
6493096,29348
6495098,28932
6497101,28383
6499102,28675
6501103,28863
6503106,28479
6505109,28779
6507109,28521
6509110,28476
6511113,28837
6513114,27397
6515116,27419
6517119,27190
6519121,27114
6521124,27418
6523128,26853
6525130,27387
6527131,27235
6529132,26998
6531134,27427
6533137,26732
6535138,27322
6537140,27226
6539140,26800
6541141,27416
6543144,26956
6545145,27265
6547146,27309
6549146,26831
6551146,27424
6553149,26736
6555153,26341
6557154,26602
6559154,25990
6561158,26683
6563161,26384
6565164,26361
6567165,26592
6569166,26006
6571168,26671
6573170,26270
6575171,25970
6577172,26342
6579172,25717
6581172,26205
6583174,26075
6585175,25769
6587176,26313
6589178,25762
6591179,26159
6593183,26189
6595184,25711
6597184,26296
6599184,25922
6601185,26020
6603187,26253
6605187,25649
6607190,26315
6609192,25902
6611193,26004
6613196,26301
6615197,25660
6617198,26313
6619201,26012
6621203,25922
6623206,26288
6625209,25640
6627211,26193
6629214,26081
6631215,25846
6633215,25957
6635217,24940
6637219,25501
6639219,25433
6641219,25014
6643221,25585
6645222,25132
6647226,25315
6649226,25483
6651226,24989
6653228,25600
6655231,25208
6657232,25383
6659236,25499
6661236,24921
6663240,25571
6665243,25282
6667243,25459
6669244,25541
6671245,24889
6673246,26057
6675249,26391
6677250,26303
6679254,26663
6681254,25998
6683258,26651
6685261,26475
6687262,26144
6689263,26651
6691265,26067
6693267,26546
6695267,26516
6697271,26114
6699302,26573
6701302,26012
6703304,26651
6705306,26388
6707310,26413
6709312,26610
6711313,26039
6713314,26466
6715315,26085
6717317,25892
6719320,26325
6721321,25693
6723324,26298
6725328,26054
6727330,25965
6729332,26287
6731334,25661
6733337,26242
6735340,26067
6737341,25880
6739344,26337
6741345,25676
6743347,26207
6745348,26099
6747350,25788
6749351,26321
6751351,25820
6753351,26195
6755355,26194
6757358,25953
6759359,26700
6761362,26190
6763362,26506
6765364,26555
6767364,26017
6769368,26639
6771370,26145
6773371,26388
6775374,26538
6777374,26024
6779377,26668
6781378,26318
6783378,26474
6785379,26635
6787381,26016
6789384,26654
6791386,26331
6793386,26271
6795387,26666
6797387,26041
6799388,26613
6801390,26455
6803392,26298
6805393,26681
6807394,26061
6809395,26567
6811397,26530
6813399,26047
6815400,26680
6817400,25802
6819402,26159
6821404,26162
6823404,25692
6825404,26309
6827404,25928
6829406,26151
6831406,26243
6833409,25642
6835409,26318
6837412,26257
6839414,26374
6841417,26598
6843417,25986
6845421,26679
6847423,26412
6849423,26297
6851427,26660
6853429,26037
6855430,26643
6857431,26430
6859432,26221
6861434,26664
6863437,26079
6865440,26590
6867443,26488
6869445,26045
6871446,26665
6873447,26078
6875450,26538
6877454,26233
6879455,25747
6881458,26331
6883461,25805
6885463,26163
6887463,26191
6889466,25695
6891467,26333
6893468,25874
6895469,26127
6897470,25730
6899472,24959
6901475,25587
6903476,25246
6905476,25259
6907479,25544
6909482,24965
6911483,25535
6913486,25265
6915487,25141
6917487,25022
6919491,24268
6921494,24807
6923495,24674
6925499,24460
6927502,24821
6929504,24270
6931507,24758
6933508,24665
6935508,24378
6937510,25126
6939513,24675
6941516,25169
6943519,25096
6945520,24661
6947523,25223
6949527,24757
6951530,25088
6953532,25105
6955533,24639
6957533,25037
6959535,24918
6961537,25010
6963538,25146
6965539,24635
6967539,25191
6969543,24871
6971544,24953
6973545,25184
6975548,24581
6977552,25190
6979553,24914
6981556,24910
6983559,25230
6985560,24560
6987562,25204
6989565,24932
6991567,24879
6993567,25178
6995568,24567
6997570,25150
6999570,25046
7001571,24761
7003572,25210
7005572,24645
7007573,25087
7009575,25026
7011576,24625
7013578,25226
7015579,24821
7017579,25024
7019579,25176
7021582,24618
7023584,25228
7025587,24834
7027588,24990
7029592,25156
7031595,24520
7033596,25187
7035597,24882
7037597,23201
7039599,22973
7041602,22360
7043604,23003
7045606,22730
7047610,22703
7049613,22975
7051614,22396
7053614,22960
7055614,22786
7057614,22542
7059616,22946
7061619,22568
7063622,22934
7065622,22895
7067622,22483
7069625,22976
7071628,22596
7073628,22842
7075628,22931
7077632,22711
7079634,23323
7081636,23040
7083637,23170
7085640,23324
7087640,22783
7089642,23354
7091642,23131
7093645,23155
7095645,23358
7097649,22204
7099651,22651
7101651,22466
7103651,22241
7105651,22646
7107654,22147
7109658,22556
7111658,22508
7113660,22125
7115660,22668
7117663,22520
7119663,22831
7121666,22906
7123666,22401
7125666,23027
7127666,22718
7129670,22783
7131673,22961
7133677,22434
7135679,23012
7137681,23618
7139681,23878
7141681,24088
7143684,23423
7145685,24093
7147685,23840
7149685,23743
7151688,24117
7153689,23561
7155690,24050
7157692,25756
7159692,25774
7161692,26303
7163692,25836
7165695,26186
7167699,26130
7169701,25775
7171703,26326
7173704,25744
7175704,26189
7177707,27991
7179710,27880
7181713,28480
7183713,27924
7185715,28412
7187717,28345
7189719,27836
7191720,28509
7193721,28044
7195725,28337
7197728,27761
7199731,27160
7201733,27825
7203733,27328
7205733,27582
7207735,27727
7209739,27157
7211739,27789
7213740,27446
7215741,27505
7217744,25929
7219746,24866
7221748,25546
7223748,25293
7225749,25282
7227752,25590
7229754,24894
7231756,25548
7233759,25361
7235761,25188
7237762,25563
7239764,25012
7241766,25490
7243768,25389
7245769,25120
7247769,25631
7249770,25122
7251771,25489
7253773,25485
7255776,25016
7257779,23426
7259782,22552
7261785,22889
7263788,22906
7265788,22547
7267792,23001
7269794,22634
7271795,22841
7273798,22918
7275802,22446
7277803,22083
7279803,21606
7281806,21794
7283806,21868
7285806,21369
7287808,21884
7289808,21736
7291808,21610
7293810,21939
7295810,21371
7297811,21189
7299813,21067
7301814,20715
7303815,21141
7305816,20837
7307816,21036
7309816,21118
7311817,20628
7313818,21249
7315821,20945
7317821,20322
7319822,20445
7321822,19944
7323824,20450
7325828,20259
7327829,20176
7329829,20461
7331831,20040
7333832,20409
7335832,20368
7337833,20274
7339835,20833
7341836,20513
7343837,20709
7345837,20789
7347837,20260
7349838,20789
7351839,20586
7353841,20569
7355841,20725
7357842,20332
7359843,20788
7361845,20673
7363846,20461
7365847,20813
7367847,20388
7369847,20748
7371848,20752
7373849,20282
7375849,20858
7377853,20515
7379853,20644
7381855,20780
7383859,20307
7385860,20831
7387861,20571
7389862,20613
7391865,20764
7393867,20296
7395869,20813
7397870,20956
7399871,20900
7401873,21178
7403873,20757
7405874,21333
7407877,21074
7409880,20851
7411882,21161
7413884,20749
7415887,21113
7417889,21048
7419893,20756
7421895,21164
7423897,20813
7425898,21074
7427902,21103
7429903,20628
7431903,21208
7433905,20845
7435908,21017
7437908,20847
7439909,20293
7441911,20799
7443912,20597
7445913,20559
7447913,20785
7449916,20303
7451920,20792
7453921,20622
7455924,20489
7457926,20803
7459929,20331
7461930,20788
7463933,20681
7465934,20425
7467934,20851
7469936,20385
7471938,20744
7473940,20709
7475943,20351
7477943,20837
7479945,20450
7481947,20751
7483951,20747
7485953,20098
7487954,20849
7489957,20449
7491961,20683
7493963,20755
7495967,20382
7497969,20777
7499970,20470
7501971,20684
7503972,20738
7505972,20291
7507976,20965
7509979,20433
7511983,20734
7513986,20729
7515989,20341
7517992,21776
7519992,21590
7521993,21835
7523993,21822
7525997,21392
7527998,22055
7530000,21595
7532000,21669
7534003,21880
7536003,21361
7538003,22575
7540005,22428
7542005,22344
7544008,22626
7546010,22094
7548010,22570
7550010,22481
7552013,22212
7554014,22626
7556016,22176
7558020,18964
7560021,18501
7562023,18294
7564025,18629
7566026,18215
7568027,18513
7570029,18537
7572030,18288
7574031,18640
7576033,18326
7578036,11884
7580036,11220
7582038,11066
7584039,11210
7586043,11098
7588043,11131
7590046,11178
7592048,10963
7594051,11226
7596053,11111
7598056,19027
7600060,20059
7602063,19605
7604064,20056
7606067,19895
7608068,19853
7610071,20082
7612074,19587
7614077,20064
7616079,19908
7618080,43519
7620082,47068
7622085,46374
7624087,46895
7626088,47041
7628088,46342
7630089,47138
7632092,46348
7634092,46927
7636096,46785
7638097,63193
7640098,63103
7642101,63231
7644104,63124
7646104,63154
7648105,63336
7650107,63184
7652107,63287
7654109,63183
7656111,63151
7658113,63276
7660116,63115
7662119,63183
7664122,63236
7666124,63024
7668128,63219
7670128,63262
7672128,63279
7674129,63225
7676130,63151
7678130,49071
7680134,45520
7682137,46010
7684139,45202
7686141,45993
7688142,45604
7690145,45413
7692146,45910
7694149,45153
7696150,46005
7698150,63930
7700152,63205
7702153,63239
7704154,63329
7706156,63167
7708159,63191
7710161,63238
7712164,63151
7714165,63226
7716167,63333
7718168,11455
7720169,5108
7722171,4851
7724173,4931
7726174,4868
7728176,4860
7730178,4911
7732180,4862
7734182,4886
7736183,4930
7738184,13309
7740184,14118
7742186,14126
7744188,13873
7746188,14240
7748188,14030
7750188,14020
7752189,14165
7758699,19763
7760701,20425
7762705,20225
7764707,20219
7766708,20379
7768708,19931
7770709,20385
7772713,20309
7774715,20096
7776716,20551
7778716,20780
7780718,21084
7782719,21068
7784721,20679
7786721,21160
7788721,20901
7790723,20878
7792725,21146
7794728,20718
7796729,21014
7798729,20594
7800732,20472
7802735,20820
7804738,20377
7806739,20718
7808742,20684
7810742,20377
7812745,20816
7814745,20447
7816745,20557
7818749,20008
7820751,19605
7822753,20116
7824754,19815
7826754,19848
7828756,20082
7830756,19593
7832758,20066
7834760,19928
7836760,19835
7838763,20423
7840765,20068
7842768,20363
7844769,20305
7846769,19972
7848769,20411
7850770,20155
7852772,20287
7854775,20377
7856777,19910
7858781,20435
7860783,20178
7862784,20207
7864787,20397
7866788,19930
7868788,20359
7870791,20325
7872791,20072
7874792,20484
7876792,20139
7878794,20705
7880794,20680
7882796,20221
7884799,20823
7886802,20526
7888802,20639
7891073,20441
7893073,20652
7895372,20285
7897372,21564
7899380,21626
7901382,21689
7903386,21866
7905389,21319
7907389,21856
7909389,21738
7911392,21672
7913393,21927
7915395,21429
7917396,21838
7919398,21750
7921399,21387
7923749,21322
7925751,21913
7927755,21467
7929757,21818
7931758,21824
7933759,21325
7935759,21942
7937759,20968
7939763,21014
7941765,21038
7943765,20605
7945766,21076
7947770,20853
7949770,20912
7951772,21096
7953772,20635
7955772,21222
7957798,62818
7959801,63042
7961801,62980
7963805,63056
7965805,63049
7967809,63199
7969811,63197
7971814,63236
7973815,63155
7975819,63265
7977823,32212
7979826,22442
7981827,21722
7983827,22328
7985829,22020
7987829,22113
7989829,22276
7991830,21717
7993830,22268
7995831,22133
7997832,22172
7999835,22631
8001836,22219
8003838,22520
8005838,22618
8007840,22088
8009842,22637
8011842,22253
8013844,22488
8015847,22579
8017849,22365
8019852,22946
8021852,22736
8023853,22674
8025853,23009
8027853,22446
8029855,22936
8031857,22808
8033860,22564
8035862,22988
8037864,23478
8039865,24025
8041866,23980
8043869,23660
8045870,24128
8047872,23705
8049874,23978
8051874,24035
8053876,23535
8055879,24134
8057883,24359
8059885,24703
8061885,24777
8063885,24174
8065886,24781
8067886,24555
8069887,24481
8071889,24847
8073893,24244
8075897,24751
8077899,24968
8079902,24871
8081903,25207
8083905,24611
8085907,25150
8087908,25082
8089912,24704
8091912,25192
8093914,24690
8095916,25152
8097918,25391
8099920,24992
8101923,25607
8103926,25104
8105928,25503
8107929,25466
8109929,25001
8111933,25596
8113934,25135
8115934,25425
8117934,26466
8119936,26021
8121938,26668
8123939,26281
8125940,26430
8127942,26662
8129945,26026
8131948,26660
8133950,26282
8135952,26418
8137954,26641
8139954,26016
8141956,26595
8143957,26404
8145958,26294
8147961,26676
8149963,25997
8151966,26658
8153969,26355
8155971,26297
8157974,27596
8159978,27138
8161980,27766
8163984,27495
8165985,27446
8167985,27864
8169987,27109
8171990,27753
8173991,27520
8175993,27408
8177993,28427
8179994,27849
8181994,28429
8183997,28300
8185997,28005
8187998,28514
8190001,27884
8192004,28381
8194006,28318
8196006,27944
8198009,29534
8200010,28978
8202010,29450
8204013,29457
8206016,29005
8208019,29635
8210019,29023
8212020,29488
8214024,29442
8216028,29015
8218028,30974
8220031,30605
8222032,30842
8224033,31003
8226037,30373
8228037,31052
8230039,30632
8232042,30808
8234045,31018
8236048,30315
8238050,31741
8240050,31412
8242053,31455
8244054,31748
8246054,30892
8248054,31716
8250056,31487
8252058,31374
8254061,31833
8256061,31073
8258065,32101
8260066,31903
8262066,31640
8264068,32111
8266071,31459
8268074,32118
8270075,31886
8272076,31585
8274077,32215
8276077,31478
8278078,33608
8280079,33831
8282079,33284
8284080,33983
8286081,33355
8288082,33732
8290085,33914
8292089,33238
8294091,33966
8296092,33426
8298094,34704
8300094,34996
8302096,34327
8304099,35161
8306100,34612
8308100,34585
8310101,35080
8312101,34301
8314103,35090
8316104,34688
8318107,35385
8320110,36150
8322112,35424
8324115,36133
8326116,35885
8328116,35567
8330116,36169
8332118,35437
8334121,36084
8336122,35878
8338124,35549
8340125,36573
8342128,35786
8344129,35953
8346130,36355
8348134,35891
8350137,36559
8352140,35845
8354143,36436
8356145,36327
8358145,36461
8360147,37335
8362148,36567
8364149,37039
8366149,37075
8368150,36500
8370152,37271
8372154,36685
8374156,37006
8376157,37143
8378158,36982
8380162,37626
8382162,37041
8384165,37353
8386169,37492
8388170,36845
8390172,37609
8392175,37021
8394177,37331
8396177,37500
8398179,35832
8400182,36544
8402185,35928
8404187,36247
8406187,36381
8408189,35814
8410192,36538
8412194,35929
8414194,36055
8416195,36450
8418196,34393
8420198,35174
8422199,34698
8424199,34722
8426200,35012
8428203,34299
8430204,35077
8432205,34661
8434208,34623
8436209,35064
8438211,33240
8440212,33962
8442213,33641
8444214,33426
8446216,33960
8448218,33229
8450221,33890
8452222,33639
8454225,33384
8456225,33964
8458227,31269
8460231,31674
8462232,31544
8464235,31383
8466238,31889
8468240,31078
8470240,31722
8472243,31592
8474244,31189
8476244,31832
8478248,30116
8480251,30598
8482254,30459
8484254,30111
8486257,30672
8488258,30058
8490259,30540
8492262,30472
8494264,30055
8496264,30730
8498264,28481
8500265,28771
8502268,28743
8504270,28240
8506270,28903
8508271,28507
8510272,28616
8512276,28785
8514277,28203
8516277,28851
8518278,27214
8520281,27101
8522283,27410
8524286,26804
8526287,27389
8528289,27202
8530292,27153
8532295,27438
8534297,26798
8536298,27418
8538298,27257
8540299,26857
8542302,27442
8544304,26769
8546305,27307
8548308,27293
8550310,26816
8552313,27470
8554313,26964
8556314,27273
8558315,26627
8560318,26012
8562320,26624
8564322,26313
8566322,26442
8568326,26634
8570326,26013
8572328,26628
8574331,26372
8576332,26177
8578333,26343
8580336,25716
8582339,26241
8584342,26075
8586346,25848
8588347,26326
8590348,25792
8592351,26261
8594353,26157
8596353,25710
8598353,26341
8600354,25906
8602357,26057
8604358,26208
8606362,25665
8608363,26301
8610366,25837
8612369,26051
8614370,26270
8616370,25667
8618373,26513
8620374,26012
8622375,25897
8624378,26333
8626378,25704
8628379,26297
8630381,26115
8632384,25748
8634387,26350
8636387,25780
8638387,25373
8640388,25491
8642389,24971
8644392,25594
8646393,25211
8648393,25405
8650394,25535
8652398,24981
8654401,25611
8656402,25260
8658404,25324
8660407,25558
8662407,24969
8664410,25566
8666412,25379
8668413,25224
8670415,25559
8672415,24967
8674418,25563
8676421,25382
8678423,26165
8680424,26646
8682427,26105
8684427,26596
8686428,26563
8688429,26054
8690432,26694
8692435,26141
8694438,26576
8696442,26576
8698446,63233
8700449,63217
8702450,63139
8704450,63200
8706453,63337
8708454,63196
8710454,63136
8712455,63287
8714455,63272
8716455,63205
8718455,29088
8720455,26115
8722455,25880
8724456,26331
8726457,25774
8728461,26201
8730461,26195
8732462,25684
8734463,26345
8736464,25893
8738465,26057
8740465,26319
8742468,25625
8744471,26289
8746472,26039
8748472,25900
8750472,26338
8752473,25696
8754475,26234
8756478,26121
8758479,26052
8760479,26691
8762482,26236
8764482,26406
8766482,26590
8768483,26016
8770486,26646
8772490,26330
8774491,26355
8776492,26666
8778492,26018
8780494,26642
8782495,26490
8784498,26197
8786500,26684
8788500,26134
8790504,26574
8792508,26526
8794510,26116
8796514,26698
8798516,26183
8800520,26540
8802521,26576
8804522,26053
8806524,26685
8808524,26293
8810527,26456
8812528,26622
8814529,26022
8816529,27435
8818532,63120
8820534,63221
8822536,63220
8824536,63302
8826539,63160
8828540,63180
8830542,63176
8832545,63089
8834548,63153
8836551,63229
8838552,63236
8840553,63250
8842554,63269
8844555,63176
8846556,63107
8848557,28149
8850558,26634
8852559,26027
8854562,26683
8856563,26370
8858563,26255
8860566,26651
8862569,26024
8864572,26598
8866572,26564
8868572,26065
8870575,26646
8872577,26221
8874581,26666
8876581,26590
8878583,26012
8880585,26658
8882587,26273
8884587,26546
8886591,26539
8888592,25684
8890595,26273
8892595,26043
8894596,25882
8896596,26327
8898597,25690
8900599,26155
8902601,26115
8904604,25800
8906605,26073
8908606,25154
8910610,25479
8912613,25485
8914616,24963
8916617,25625
8918618,25184
8920619,25347
8922620,25524
8924621,24945
8926621,25340
8928621,24637
8930622,24447
8932624,24837
8934628,24261
8936629,24768
8938630,24725
8940633,24279
8942635,24854
8944637,24385
8946637,24691
8948639,25129
8950643,24589
8952647,25252
8954650,24893
8956651,24907
8958654,25184
8960657,24515
8962658,25188
8964660,24979
8966660,24824
8968660,25188
8970663,24643
8972664,25144
8974667,25019
8976668,24655
8978670,25198
8980672,24709
8982673,25050
8984675,25120
8986676,24593
8988678,25198
8990681,24761
8992681,24900
8994682,25182
8996682,24559
8998686,25190
9000686,24957
9002687,24844
9004689,25158
9006692,24602
9008695,25174
9010698,24999
9012700,24771
9014702,25212
9016703,24643
9018703,25110
9020705,25043
9022705,24611
9024706,25220
9026706,24814
9028707,25008
9030710,25142
9032713,24621
9034714,25182
9036716,24872
9038716,24928
9040718,25187
9042722,24613
9044724,25189
9046724,24238
9048724,22726
9050726,23020
9052728,22458
9054730,22931
9056734,22774
9058738,22679
9060738,22996
9062738,22464
9064738,22923
9066740,22866
9068744,22500
9070746,23002
9072746,22602
9074746,22862
9076746,22871
9078746,22432
9080748,22987
9082749,22698
9084750,22802
9086750,23072
9088753,22792
9090755,23360
9092759,23134
9094760,23085
9096760,23374
9098761,22828
9100763,23328
9102766,23136
9104768,23017
9106768,23172
9108769,22213
9110771,22525
9112773,22526
9114775,22085
9116777,22642
9118779,22290
9120783,22556
9122786,22555
9124786,22116
9126786,22710
9128786,22739
9130789,22784
9132789,22942
9134792,22422
9136792,22973
9138792,22830
9140795,22694
9142795,23007
9144797,22500
9146797,23199
9148798,23961
9150801,23618
9152805,24127
9154807,23676
9156807,24007
9158808,24098
9160810,23534
9162811,24139
9164812,23765
9166813,24762
9168817,26237
9170820,25659
9172821,26281
9174823,25988
9176823,25936
9178823,26297
9180823,25660
9182824,26245
9184825,26137
9186826,26630
9188828,28483
9190832,27875
9192834,28368
9194837,28330
9196837,27916
9198838,28535
9200839,28049
9202842,28284
9204844,28377
9206845,27575
9208846,27851
9210847,27413
9212849,27588
9214852,27739
9216853,27111
9218856,27810
9220859,27448
9222861,27512
9224864,27763
9226865,26327
9228866,25636
9230867,25307
9232871,25294
9234873,25607
9236875,24973
9238878,25539
9240879,25357
9242880,25182
9244881,25603
9246884,24983
9248884,25535
9250887,25421
9252890,25078
9254892,25608
9256893,25095
9258893,25463
9260893,25458
9262895,25010
9264897,25593
9266897,24381
9268897,22988
9270899,22952
9272902,22387
9274905,23016
9276906,22727
9278906,22674
9280910,22970
9282912,22400
9284913,23003
9286915,22193
9288915,21629
9290917,21910
9292919,21345
9294921,22023
9296922,21766
9298923,21569
9300925,21962
9302925,21509
9304927,21806
9306927,21471
9308929,20643
9310930,21186
9312934,20869
9314935,20968
9316936,21118
9318936,20649
9320938,21198
9322941,20944
9324943,20954
9326944,20829
9328945,20026
9330946,20628
9332947,20349
9334948,20040
9336949,20470
9338949,20094
9340949,20305
9342951,20423
9344953,19933
9346953,20609
9348956,20559
9350958,20639
9352961,20793
9354961,20297
9356962,20811
9358966,20613
9360968,20526
9362968,20809
9364969,20277
9366972,20751
9368976,20667
9370976,20441
9372977,20823
9374978,20321
9376982,20760
9378984,20735
9380984,20350
9382987,20789
9384988,20463
9386990,20697
9388991,20770
9390993,20355
9392994,20777
9394995,20597
9396996,20560
9398996,20783
9401000,20313
9403000,20779
9405002,20655
9407005,20697
9409006,21173
9411008,20703
9413009,21116
9415009,21064
9417011,20700
9419011,21153
9421014,20857
9423016,21042
9425017,21090
9427020,20639
9429020,21189
9431023,20877
9433026,20956
9435028,21122
9437028,20627
9439032,21136
9441034,20916
9443036,20916
9445039,21140
9447041,20435
9449041,20803
9451042,20607
9453044,20509
9455046,20784
9457046,20327
9459049,20759
9461051,20645
9463054,20465
9465055,20844
9467058,20311
9469060,20775
9471060,20723
9473063,20442
9475066,20804
9477069,20390
9479073,20751
9481074,20708
9483075,20369
9485076,20819
9487077,20489
9489079,20691
9491082,20709
9493082,20345
9495082,20815
9497086,20489
9499089,20650
9501091,20749
9503095,20289
9505099,20844
9507099,20571
9509099,20587
9511103,20791
9513104,20287
9515106,20783
9517108,20635
9519111,20551
9521112,20787
9523113,20198
9525115,20832
9527118,21370
9529119,21501
9531122,21931
9533122,21485
9535124,21826
9537125,21812
9539125,21363
9541128,21950
9543130,21648
9545132,21718
9547133,22358
9549137,22120
9551140,22671
9553142,22379
9555146,22430
9557146,22624
9559149,22096
9561152,22644
9563154,22404
9565156,22350
9567156,20080
9569156,18197
9571158,18584
9573160,18483
9575162,18286
9577163,18624
9579165,18275
9581167,18564
9583170,18516
9585172,18182
9587172,14015
9589172,11134
9591175,11188
9593177,11197
9595180,10971
9597181,11248
9599182,11130
9601185,11142
9603187,11185
9605188,10981
9607189,16530
9609190,19863
9611191,19723
9613192,20136
9615195,19797
9617198,20023
9619199,20048
9621203,19645
9623204,20119
9625208,19796
9627210,36874
9629210,46905
9631211,46293
9633212,46868
9635213,46872
9637215,46356
9639215,47120
9641216,46282
9643219,46960
9645223,46772
9647226,63162
9649228,63293
9651228,63261
9653229,63211
9655233,63335
9657234,63185
9659237,63257
9661240,63217
9663241,63169
9665242,63243
9667243,63199
9669243,63364
9671243,63252
9673246,63189
9675247,63164
9677248,63263
9679249,63212
9681249,63374
9683250,63119
9685252,63199
9687252,63161
9689252,63245
9691253,63231
9693255,63207
9695255,63247
9697258,63408
9699258,63204
9701261,63264
9703264,63183
9705265,63201
9707266,33289
9709291,8077
9711294,7355
9713295,7409
9715296,7329
9717298,7347
9719299,7391
9721300,7278
9723301,7393
9725302,7390
9727305,5624
9729309,4891
9731312,4877
9733314,4895
9735314,4892
9737314,4855
9739316,4885
9741320,4907
9743322,4849
9745323,4898
9747323,10978
9749334,14018
9751334,14193
9753335,13928
9755339,14172
9757341,14144
9759343,13959
9761345,14241
9763346,14002
9765350,14117
9767351,18873
9769354,19865
9771358,20450
9773362,20184
9775363,20224
9777366,20427
9779367,20021
9781367,20413
9783367,20305
9785367,20066
9787367,20989
9789371,20790
9791373,21077
9793373,21122
9795373,20617
9797373,21181
9799375,20944
9801378,20940
9803380,21146
9805380,20659
9807382,20900
9809384,20627
9811386,20491
9813388,20808
9815388,20429
9817388,20760
9819391,20703
9821393,20357
9823395,20805
9825396,20505
9827396,20154
9829397,20054
9831397,19613
9833399,20097
9835403,19837
9837403,19831
9839403,20102
9841404,19663
9843405,20045
9845405,19948
9847405,19925
9849408,20451
9851410,20112
9853411,20292
9855412,20394
9857416,19932
9859417,20446
9861417,20196
9863420,20254
9865420,20431
9867421,19940
9869421,20401
9871424,20239
9873425,20182
9875427,20461
9877430,19972
9879432,20440
9881434,20313
9883438,20100
9885441,20411
9887444,20351
9889445,20727
9891449,20739
9893452,20410
9895454,20839
9897455,20453
9899456,20666
9901458,20761
9903459,20299
9905463,20843
9907467,21345
9909468,21700
9911470,21860
9913472,21348
9915475,21959
9917476,21722
9919476,21640
9921479,21898
9923481,21389
9925483,21930
9927484,21731
9929487,21534
9931490,21941
9933491,21465
9935495,21885
9937495,21808
9939496,21435
9941496,21935
9943499,21546
9945501,21802
9947502,21274
9949504,20644
9951506,21227
9953506,20909
9955509,21008
9957511,21136
9959514,20643
9961515,21180
9963516,20934
9965517,20891
9967517,22377
9969520,22209
9971523,22664
9973526,22479
9975526,22141
9977528,22662
9979530,22278
9981532,22520
9983536,22543
9985537,22099
9987537,22300
9989538,21995
9991540,22068
9993540,22424
9995541,21682
9997545,22240
9999545,22032
10001547,21971
10003549,22276
10005549,21724
10007552,22538
10009554,22470
10011556,22264
10013559,22650
10015562,22136
10017563,22578
10019566,22533
10021568,22152
10023570,22668
10025572,22196
10027572,22818
10029573,22930
10031574,22417
10033576,23010
10035577,22732
10037577,22750
10039580,22979
10041583,22442
10043586,22999
10045587,22786
10047588,23514
10049590,24130
10051592,23546
10053595,24038
10055596,23909
10057596,23669
10059598,24114
10061599,23606
10063601,24044
10065602,23994
10067602,24088
10069606,24797
10071609,24418
10073611,24662
10075611,24737
10077613,24160
10079616,24737
10081616,24431
10083617,24533
10085617,24779
10087618,24525
10089622,25231
10091622,24946
10093626,24893
10095629,25201
10097630,24611
10099630,25154
10101631,25001
10103632,24676
10105633,25216
10107634,25028
10109634,25456
10111634,25503
10113636,25024
10115638,25591
10117641,25140
10119642,25427
10121644,25521
10123648,24938
10125650,25584
10127652,26033
10129654,26442
10131658,26618
10133662,26012
10135665,26665
10137668,26255
10139670,26454
10141671,26617
10143671,26002
10145674,26589
10147677,26502
10149678,26348
10151682,26630
10153686,26016
10155689,26637
10157691,26365
10159692,26450
10161695,26662
10163695,26001
10165696,26654
10167696,27538
10169700,27474
10171702,27769
10173705,27156
10175707,27769
10177708,27518
10179708,27293
10181712,27793
10183713,27155
10185715,27737
10187716,28186
10189719,28015
10191723,28495
10193724,27902
10195724,28361
10197727,28312
10199728,27905
10201730,28529
10203731,27969
10205732,28281
10207732,29272
10209733,28965
10211733,29636
10213735,29176
10215738,29462
10217739,29561
10219741,28959
10221741,29609
10223744,29210
10225747,29348
10227750,30822
10229750,30330
10231753,31074
10233756,30615
10235757,30758
10237761,30948
10239763,30378
10241763,31074
10243764,30695
10245767,30764
10247769,31665
10249769,31070
10251769,31801
10253772,31401
10255774,31469
10257774,31760
10259777,31090
10261780,31792
10263784,31407
10265786,31494
10267787,32062
10269790,31399
10271790,32124
10273793,31757
10275795,31836
10277795,32115
10279795,31423
10281795,32173
10283797,31853
10285799,31673
10287801,33740
10289801,33211
10291802,33933
10293802,33633
10295805,33430
10297808,33984
10299808,33250
10301809,33942
10303812,33625
10305814,33461
10307814,34962
10309815,34365
10311816,35022
10313818,34796
10315820,34507
10317820,35056
10319820,34321
10321821,34954
10323824,34818
10325825,34399
10327826,36217
10329826,35531
10331826,35996
10333829,35972
10335832,35457
10337833,36135
10339835,35509
10341838,35975
10343839,35991
10345840,35477
10347842,36515
10349845,35879
10351848,36380
10353851,36360
10355853,35822
10357855,36360
10359858,35862
10361861,36396
10363861,36348
10365863,35870
10367864,37219
10369867,36567
10371870,37101
10373870,37083
10375871,36560
10377872,37295
10379874,36644
10381877,37107
10383879,37135
10385880,36541
10387881,37594
10389883,36862
10391885,37435
10393889,37360
10395890,36980
10397893,37625
10399895,36918
10401898,37506
10403902,37416
10405903,36859
10407907,36746
10409909,35689
10411912,36440
10413913,36336
10415916,35898
10417916,36582
10419919,35822
10421919,36408
10423920,36332
10425924,35803
10427925,35260
10429927,34413
10431929,34886
10433931,34919
10435932,34377
10437933,35112
10439936,34469
10441937,34889
10443938,34961
10445939,34472
10447940,34058
10449942,33561
10451942,33689
10453944,33920
10455944,33198
10457945,33986
10459947,33506
10461950,33621
10463953,33936
10465955,33202
10467958,31937
10469962,31433
10471965,31548
10473966,31950
10475969,31067
10477972,31776
10479972,31333
10481973,31399
10483977,31660
10485978,31074
10487980,30778
10489982,30329
10491985,30368
10493989,30660
10495990,29962
10497991,30668
10499994,30412
10501994,30287
10503995,30698
10505998,30036
10507999,28925
10510003,28627
10512006,28396
10514009,28895
10516012,28248
10518014,28811
10520018,28681
10522021,28350
10524025,28861
10526027,28191
10528028,27566
10530030,27259
10532030,26844
10534033,27454
10536035,26908
10538036,27288
10540037,27284
10542039,26782
10544040,27443
10546041,26963
10548041,27251
10550044,27325
10552045,26802
10554047,27466
10556049,26998
10558050,27145
10560053,27346
10562056,26778
10564059,27370
10566060,27004
10568061,26482
10570064,26660
10572066,26002
10574068,26625
10576069,26359
10578069,26232
10580072,26666
10582072,26044
10584072,26682
10586076,26462
10588076,25839
10590078,26250
10592079,25707
10594081,26194
10596082,26117
10598083,25728
10600083,26297
10602083,25884
10604085,26145
10606089,26168
10608092,25737
10610094,26339
10612096,25879
10614098,26110
10616100,26214
10618100,25719
10620100,26316
10622103,25941
10624105,26025
10626106,26254
10628110,25637
10630113,26287
10632116,25952
10634118,25982
10636119,26235
10638119,25665
10640121,26286
10642121,26047
10644124,25943
10646126,26313
10648128,4959
10650131,3518
10652133,3406
10654136,3426
10656137,3428
10658139,3445
10660140,3384
10662143,3419
10664147,3440
10666148,3446
10668150,23743
10670153,25175
10672155,25546
10674156,24963
10676156,25583
10678156,25361
10680158,25194
10682160,25587
10684164,24987
10686166,25546
10688166,26382
10690169,26130
10692171,26681
10694174,26083
10696177,26586
10698180,26552
10700180,26132
10702183,26717
10704184,26139
10706187,26568
10708188,26536
10710190,26075
10712192,26680
10714193,26189
10716197,26578
10718199,26684
10720199,26054
10722202,26686
10724203,26182
10726204,26498
10728206,26350
10730210,25651
10732210,26318
10734210,25968
10736210,25942
10738211,26297
10740214,25696
10742217,26277
10744219,26040
10746220,25916
10748224,26306
10750226,25706
10752229,26226
10754232,26071
10756235,25891
10758237,26278
10760239,25591
10762239,26211
10764240,26114
10766243,25748
10768245,26649
10770246,26123
10772248,26533
10774251,26530
10776252,26073
10778255,26660
10780256,26305
10782259,26500
10784262,26532
10786265,26047
10788266,26661
10790266,26275
10792266,26468
10794266,26602
10796268,26004
10798269,26660
10800270,26327
10802271,26345
10804272,26659
10806273,26020
10808274,26633
10810277,26433
10812279,26311
10814282,26662
10816282,26016
10818283,26634
10820286,26430
10822289,26226
10824291,26651
10826293,26117
10828295,26276
10830297,26104
10832299,25793
10834302,26355
10836303,25690
10838307,26114
10840310,26163
10842310,25768
10844311,26307
10846312,25645
10848314,26576
10850317,26510
10852320,26140
10854321,26660
10856325,26130
10858326,26526
10860329,26559
10862330,26017
10864330,26694
10866330,26249
10868330,26337
10870333,26658
10872335,25993
10874338,26678
10876339,26398
10878339,26325
10880343,26610
10882346,26001
10884349,26668
10886351,26370
10888352,26004
10890353,26323
10892353,25675
10894356,26212
10896357,26091
10898357,25768
10900360,26168
10902362,25769
10904365,26195
10906366,26157
10908369,25035
10910369,25583
10912370,25091
10914373,25457
10916374,25489
10918374,24917
10920374,25588
10922378,25282
10924379,25287
10926381,25547
10928385,24232
10930386,24851
10932389,24580
10934390,24527
10936391,24807
10938391,24267
10940395,24780
10942397,24663
10944398,24351
10946398,24799
10948401,24258
10950403,24737
10952404,24630
10954406,24665
10956408,25214
10958409,24765
10960409,25082
10962411,25078
10964413,24595
10966415,25222
10968416,24828
10970419,25054
10972420,25195
10974422,24599
10976423,25227
10978426,24855
10980428,24946
10982431,25156
10984433,24577
10986434,25182
10988435,24950
10990438,24873
10992441,25188
10994443,24525
10996444,25151
10998448,24938
11000452,24870
11002454,25184
11004458,24607
11006459,25170
11008459,24991
11010462,24815
11012463,25214
11014466,24628
11016467,25134
11018468,25019
11020471,24734
11022474,25185
11024477,24691
11026478,25132
11028479,25072
11030482,24630
11032484,25208
11034486,24741
11036490,25081
11038491,25139
11040495,24656
11042498,25286
11044499,24821
11046501,25001
11048504,25120
11050507,24615
11052510,25206
11054512,22738
11056513,22836
11058513,22973
11060514,22396
11062515,22971
11064517,22778
11066518,22707
11068519,22948
11070522,22400
11072523,22979
11074524,22825
11076526,22666
11078527,22993
11080528,22551
11082528,22929
11084530,22892
11086530,22479
11088530,23029
11090533,22591
11092535,22891
11094539,23287
11096540,22796
11098543,23400
11100545,23031
11102548,23153
11104548,23334
11106548,22806
11108549,23341
11110553,23092
11112555,23188
11114558,22626
11116560,22053
11118560,22868
11120561,22408
11122561,22308
11124562,22621
11126566,22114
11128568,22586
11130571,22474
11132571,22205
11134571,22981
11136571,22556
11138572,22949
11140574,22888
11142574,22420
11144575,22943
11146575,22618
11148576,22793
11150576,22996
11152576,22393
11154578,24024
11156580,23903
11158582,23778
11160585,24112
11162585,23529
11164587,24092
11166588,23939
11168588,23719
11170591,24108
11172594,23584
11174596,26099
11176598,26171
11178599,25718
11180603,26309
11182605,25800
11184607,26184
11186610,26301
11188610,25726
11190611,26355
11192614,25852
11194615,28216
11196615,28434
11198616,27859
11200620,28509
11202623,28052
11204624,28284
11206625,28418
11208626,27791
11210626,28496
11212629,28160
11214632,27488
11216632,27726
11218632,27132
11220632,27738
11222632,27522
11224635,27343
11226637,27797
11228639,27145
11230641,27714
11232643,27598
11234643,4423
11236645,3462
11238645,3426
11240648,3438
11242651,3423
11244653,3435
11246654,3433
11248655,3398
11250658,3448
11252660,3416
11254663,24012
11256667,25559
11258669,25291
11260671,25240
11262671,25554
11264673,24925
11266674,25556
11268675,25342
11270678,25282
11272680,25557
11274682,22565
11276683,22972
11278684,22842
11280685,22685
11282687,22996
11284688,22450
11286689,22946
11288691,22878
11290693,22527
11292694,22999
11294696,21538
11296699,21957
11298699,21795
11300699,21413
11302699,21938
11304701,21628
11306701,21716
11308704,21880
11310706,21362
11312707,21878
11314709,20940
11316710,20973
11318711,21141
11320714,20657
11322716,21141
11324719,21004
11326721,20810
11328724,21195
11330724,20775
11332728,21045
11334730,20402
11336731,20057
11338731,20464
11340732,20135
11342734,20279
11344737,20386
11346737,19940
11348737,20463
11350740,20188
11352743,20345
11354744,20783
11356745,20239
11358745,20719
11360746,20577
11362748,20519
11364748,20801
11366751,20334
11368753,20829
11370753,20564
11372754,20339
11374755,20851
11376756,20445
11378756,20723
11380758,20711
11382758,20302
11384760,20791
11386762,20489
11388762,20655
11390762,20764
11392766,20265
11394769,20807
11396772,20537
11398774,20608
11400775,20792
11402775,20275
11404777,20768
11406778,20630
11408779,20483
11410779,20786
11412781,20311
11414783,21093
11416784,21096
11418785,20685
11420786,21184
11422787,20823
11424788,20978
11426792,21076
11428793,20649
11430796,21172
11432796,20928
11434797,21000
11436799,21152
11438800,20655
11440800,21144
11442801,21000
11444803,20806
11446806,21190
11448808,20749
11450810,20978
11452812,21014
11454815,20433
11456816,20804
11458817,20424
11460820,20717
11462820,20735
11464823,20319
11466823,20848
11468824,20482
11470824,20669
11472825,20786
11474827,20269
11476827,20787
11478828,20631
11480832,20533
11482834,20767
11484837,20325
11486839,20762
11488841,20646
11490844,20487
11492847,20772
11494847,20329
11496851,20779
11498852,20705
11500852,20439
11502853,20925
11504854,20402
11506856,20731
11508857,20696
11510858,20330
11512859,20819
11514860,20523
11516861,20649
11518863,20812
11520865,20248
11522868,20819
11524868,20545
11526869,20631
11528870,20795
11530874,20285
11532875,20836
11534878,21607
11536879,21688
11538882,21900
11540885,21389
11542885,21916
11544885,21734
11546888,21636
11548891,21906
11550892,21386
11552895,21941
11554897,22436
11556901,22280
11558902,22666
11560906,22134
11562908,22581
11564911,22438
11566913,22385
11568914,22667
11570915,22140
11572918,21616
11574919,18584
11576919,18315
11578919,18613
11580923,18302
11582925,18582
11584926,18531
11586927,18304
11588928,18629
11590931,18257
11592931,16746
11594931,11359
11596932,11035
11598932,11243
11600933,11102
11602933,11135
11604934,11203
11606936,10974
11608936,11226
11610938,11124
11612941,12776
11614942,19898
11616944,19698
11618945,20005
11620947,19998
11622949,19667
11624951,20096
11626951,19816
11628955,20012
11630957,20042
11632958,23738
11634960,46239
11636960,46817
11638963,46396
11640966,46976
11642968,46463
11644970,47094
11646972,46542
11648973,46522
11650975,46997
11652978,55258
11654980,63203
11656982,63208
11658983,63171
11660986,63233
11662988,63229
11664992,63229
11666993,63211
11668995,63193
11670996,63209
11673000,63231
11675003,63157
11677004,63265
11679004,63633
11681006,63267
11683008,63189
11685012,63337
11687013,63256
11689014,63203
11691015,63141
11693017,63179
11695018,46269
11697021,46131
11699022,45217
11701023,45714
11703026,45829
11705028,45232
11707029,46037
11709033,45245
11711034,45756
11713034,33755
11715034,8160
11717036,7457
11719038,7263
11721039,7427
11723041,7353
11725043,7347
11727043,7417
11729047,7329
11731050,7389
11733053,6563
11735056,4941
11737057,4909
11739059,4868
11741061,4871
11743063,4909
11745064,4831
11747066,4886
11749066,4869
11751067,4890
11753069,7457
11755070,13860
11757074,14069
11759078,14197
11761081,13835
11763083,14149
11765085,14082
11767088,14056
11769089,14168
11771091,13895
11773093,15689
11775097,20225
11777100,19994
11779103,20473
11781103,20100
11783103,20369
11785104,20358
11787105,19968
11789108,20466
11791109,20196
11793112,20543
11795115,21110
11797117,20651
11799120,21162
11801123,20974
11803123,20904
11805126,21136
11807127,20611
11809128,21158
11811131,20936
11813132,20749
11815133,20823
11817137,20334
11819138,20775
11821140,20672
11823143,20465
11825145,20811
11827145,20389
11829148,20725
11831148,20695
11833148,20066
11835149,20119
11837150,19763
11839154,19960
11841156,20016
11843160,19609
11845162,20134
11847163,19839
11849163,19912
11851163,20076
11853167,19729
11855167,20468
11857170,20221
11859172,20196
11861175,20491
11863175,19954
11865175,20455
11867177,20329
11869178,20060
11871181,20469
11873184,19964
11875186,20415
11877187,20321
11879187,20026
11881189,20509
11883193,20104
11885193,20365
11887196,20369
11889197,19988
11891197,20487
11893200,20295
11895200,20682
11897200,20747
11899200,20261
11901201,20807
11903203,20599
11905205,20593
11907205,20617
11909209,20283
11911212,20762
11913213,20964
11915215,21646
11917215,21941
11919217,21387
11921219,21861
11923220,21746
11925223,21663
11927223,21943
11929224,21396
11931224,21862
11933224,21815
11935227,21507
11937229,21882
11939229,21533
11941230,21838
11943234,21798
11945234,21422
11947237,21948
11949241,21546
11951244,21800
11953248,21407
11955251,20751
11957253,21177
11959254,20861
11961254,21016
11963257,21133
11965257,20655
11967259,21139
11969262,20902
11971262,20941
11973262,21856
11975262,22081
11977264,22662
11979265,22477
11981266,22239
11983269,22646
11985270,22176
11987271,22520
11989294,22455
11991297,22440
11993299,22386
11995300,21800
11997300,22264
11999300,22141
12001303,21944
12003305,22280
12005306,21815
12007307,22259
12009307,22129
12011309,21862
12013312,22446
12015313,22207
12017317,22614
12019317,22530
12021318,22113
12023319,22650
12025321,22253
12027323,22443
12029325,22548
12031327,22076
12033330,22842
12035332,22676
12037333,22821
12039333,22991
12041334,22403
12043336,22979
12045336,22772
12047339,22726
12049341,23003
12051343,22426
12053344,13939
12055345,3692
12057346,3444
12059349,3420
12061349,3423
12063350,3432
12065350,3441
12067351,3434
12069351,3442
12071351,3386
12073353,15118
12075354,24595
12077355,24367
12079359,24686
12081361,24757
12083364,24266
12085365,24839
12087365,24529
12089366,24680
12091368,24822
12093370,24421
12095372,25200
12097374,24931
12099374,24947
12101378,25191
12103381,24579
12105384,25198
12107387,24929
12109388,24949
12111388,25190
12113391,24805
12115391,25533
12117392,25364
12119395,25166
12121397,25599
12123400,24987
12125401,25541
12127401,25408
12129403,25154
12131404,25589
12133404,25693
12135408,26503
12137410,26558
12139411,26017
12141412,26692
12143414,26278
12145414,26506
12147414,26610
12149414,25984
12151414,26654
12153416,26480
12155418,26323
12157419,26669
12159421,25970
12161424,26632
12163427,26536
12165428,26179
12167431,26672
12169432,26037
12171434,26570
12173435,27243
12175437,27229
12177441,27805
12179444,27258
12181446,27660
12183448,27664
12185449,27185
12187449,27805
12189453,27290
12191455,27660
12193457,28160
12195461,27901
12197461,28518
12199463,28070
12201465,28289
12203467,28438
12205467,27822
12207468,28521
12209468,28106
12211470,28268
12213470,28883
12215470,28944
12217471,29608
12219473,29344
12221475,29220
12223476,29589
12225476,28960
12227478,29577
12229478,29382
12231480,29040
12233480,30499
12235483,30411
12237483,30997
12239483,31036
12241485,30486
12243487,31156
12245489,30453
12247489,30946
12249490,30934
12251492,30456
12253495,31546
12255498,31204
12257499,31648
12259500,31681
12261502,31146
12263505,31814
12265507,31187
12267508,31633
12269509,31623
12271509,31129
12273511,32019
12275514,31547
12277514,31977
12279514,32067
12281517,31423
12283519,32174
12285521,31666
12287524,31966
12289524,32074
12291526,31439
12293526,33246
12295530,33482
12297532,33625
12299532,33914
12301535,33221
12303536,33926
12305537,33526
12307538,33624
12309539,33854
12311543,33194
12313545,34650
12315547,34686
12317551,34656
12319553,35068
12321553,34052
12323554,35079
12325556,34718
12327557,34628
12329559,35084
12331561,34358
12333562,35767
12335562,35902
12337562,35551
12339564,36163
12341565,35413
12343565,35983
12345566,35965
12347568,35475
12349570,36269
12351573,35495
12353576,36350
12355576,36325
12357579,35814
12359580,36552
12361582,35901
12363583,36386
12365584,36420
12367587,35844
12369587,36584
12371589,35886
12373592,36824
12375593,37097
12377597,36538
12379598,37342
12381599,36616
12383601,37048
12385602,37129
12387605,36468
12389607,37266
12391609,36644
12393610,37321
12395613,37470
12397614,36767
12399617,37636
12401618,36996
12403622,37361
12405622,37494
12407622,36868
12409623,37656
12411625,36807
12413627,36500
12415630,36428
12417633,35762
12419633,36548
12421635,36245
12423635,36184
12425636,36516
12427638,35679
12429641,36488
12431644,36111
12433646,35146
12435650,35013
12437650,34302
12439650,35071
12441650,34706
12443654,34658
12445658,35088
12447659,34328
12449660,35052
12451663,34751
12453665,12558
12455667,3673
12457670,3473
12459670,3426
12461672,3454
12463673,3394
12465675,3433
12467675,3436
12469678,3411
12471679,3429
12473681,22206
12475682,31534
12477682,31493
12479682,31272
12481685,31786
12483687,31128
12485689,31702
12487693,31515
12489695,31264
12491695,31793
12493696,30285
12495696,30609
12497696,30628
12499698,30033
12501699,30701
12503702,30074
12505705,30590
12507707,30428
12509708,30102
12511712,30692
12513713,28629
12515713,28773
12517713,28721
12519717,28292
12521718,28900
12523721,28309
12525723,28742
12527723,28531
12529727,28297
12531728,28905
12533730,27206
12535732,27341
12537733,27292
12539737,26820
12541739,27444
12543740,26926
12545740,27295
12547744,27273
12549745,26788
12551749,27478
12553752,26987
12555754,27227
12557757,27301
12559761,26837
12561764,27434
12563764,26909
12565766,27274
12567769,27337
12569769,26791
12571772,27460
12573774,26460
12575774,26405
12577778,26454
12579781,26027
12581783,26675
12583785,26291
12585785,26347
12587789,26627
12589793,25973
12591794,26676
12593795,26037
12595798,26004
12597798,26325
12599800,25627
12601803,26301
12603805,26065
12605806,25938
12607808,26293
12609811,25848
12611814,26263
12613815,26099
12615816,25794
12617816,26345
12619818,25852
12621818,26139
12623818,26225
12625818,25691
12627820,26336
12629822,25904
12631824,26133
12633824,26315
12635825,25622
12637825,26295
12639828,26045
12641831,25950
12643835,26286
12645835,25697
12647837,26244
12649840,26075
12651841,25846
12653845,25716
12655846,25048
12657848,25689
12659848,25443
12661851,25074
12663853,25287
12665855,25097
12667856,25471
12669860,25427
12671861,24990
12673864,25596
12675867,25153
12677867,25439
12679870,25494
12681873,24919
12683873,25616
12685875,25180
12687877,25338
12689879,25479
12691881,24917
12693883,26450
12695883,26414
12697887,26337
12699888,26642
12701888,26079
12703889,26663
12705892,26380
12707892,26167
12709896,26662
12711898,26041
12713901,26610
12715902,26404
12717905,26179
12719906,26681
12721907,26045
12723910,26604
12725913,26507
12727916,26168
12729920,26724
12731922,26101
12733926,26309
12735927,26180
12737930,25738
12739933,26349
12741933,25830
12743936,26183
12745939,26147
12747941,25709
12749942,26369
12751944,25781
12760196,26253
12762200,25619
12764202,26211
12766204,25972
12768205,25986
12770207,26311
12772210,25680
12774213,26606
12776215,26390
12778218,26346
12780220,26635
12782220,26041
12784221,26542
12786223,26464
12788223,26167
12790226,26659
12792229,26061
12794231,26587
12796231,26506
12798234,26085
12800235,26662
12802237,26113
12804237,26552
12806240,26568
12808242,26086
12810242,26638
12812246,26169
12814247,26335
12816247,26614
12818248,26004
12820248,26680
12822250,26329
12824253,26419
12826254,26622
12828256,25979
12830260,26644
12832260,26367
12834263,25970
12836264,26304
12838266,25647
12840268,26293
12842269,26069
12844272,25932
12846274,26305
12848277,25729
12850280,26245
12852280,26096
12854283,26127
12856283,26720
12858283,26083
12860286,26617
12862287,26514
12864291,26071
12866293,26716
12868294,26156
12870297,26577
12872298,26584
12874302,26041
12876302,26709
12878304,26273
12880308,26484
12882309,26632
12884311,26019
12886313,26674
12888317,26278
12890319,26457
12892319,26629
12894321,25694
12896321,26341
12898322,26024
12900323,25982
12902326,26292
12904328,25663
12906329,26229
12908329,26018
12910330,25907
12912330,26337
12914330,25098
12916330,25483
12918330,25487
12920334,25062
12922338,25575
12924340,25134
12926343,25399
12928345,25499
12930348,25034
12932349,25591
12934353,24481
12936353,24627
12938356,24770
12940360,24256
12942361,24847
12944361,24463
12946363,24565
12948364,24875
12950365,24195
12952365,24786
12954367,24935
12956371,24837
12958372,25210
12960373,24636
12962376,24973
12964378,25004
12966380,24767
12968381,25206
12970382,24611
12972385,25154
12974387,25039
12976388,24714
12978388,25211
12980390,24811
12982392,25043
12984395,25062
12986399,24643
12988399,25226
12990399,24705
12992402,25064
12994405,25103
12996406,24579
12998407,25230
13000407,24918
13002409,24929
13004412,25150
13006416,24577
13008416,25209
13010419,24925
13012420,24905
13014420,25190
13016420,24595
13018423,25152
13020427,24989
13022430,24834
13024432,25207
13026434,24613
13028437,25155
13030437,25009
13032440,24750
13034441,25144
13036441,24709
13038442,25118
13040445,25006
13042447,24685
13044449,25202
13046452,24714
13048453,25098
13050456,25048
13052458,24663
13054461,25176
13056461,24805
13058462,23540
13060463,22914
13062466,22487
13064469,23019
13066471,22634
13068473,22819
13070476,22937
13072477,22275
13074480,23011
13076482,22708
13078482,22767
13080482,22966
13082483,22418
13084484,22991
13086488,22803
13088492,22742
13090492,23060
13092492,53273
13094492,63167
13096493,63165
13098493,63239
13100493,63259
13102494,63147
13104495,63235
13106498,63147
13108498,63214
13110498,29928
13112501,22746
13114501,22645
13116503,22096
13118505,22634
13120509,22397
13122513,22381
13124515,22654
13126515,22149
13128516,22892
13130519,22835
13132520,22505
13134521,22988
13136523,22614
13138523,22846
13140526,22939
13142526,22449
13144526,23864
13146529,23534
13148531,23903
13150531,24055
13152531,23520
13154532,24099
13156533,23915
13158533,23795
13160536,24333
13162539,25599
13164541,26235
13166542,26134
13168543,25805
13170543,26281
13172544,25802
13174547,26155
13176550,26153
13178552,27197
13180552,28525
13182555,28073
13184557,28298
13186558,28427
13188559,27807
13190559,28522
13192562,28141
13194564,28218
13196564,27755
13198564,27101
13200566,27747
13202569,27412
13204572,27468
13206573,27727
13208574,27105
13210576,27745
13212578,26448
13214580,25199
13216581,25615
13218581,24994
13220581,25532
13222583,25375
13224586,25163
13226588,25624
13228592,25022
13230596,25477
13232597,25449
13234599,25058
13236602,25592
13238606,25008
13240608,25534
13242610,25411
13244612,25088
13246613,24849
13248613,22616
13250613,22909
13252613,22876
13254613,22432
13256615,22983
13258615,22702
13260617,22775
13262619,22961
13264622,21556
13266624,21901
13268625,21488
13270628,21645
13272631,21920
13274632,21445
13276633,21885
13278633,21783
13280636,21406
13282638,21212
13284639,20767
13286641,21036
13288642,21059
13290645,20687
13292648,21174
13294652,20858
13296653,21088
13298654,20579
13300656,19924
13302660,20485
13304663,20235
13306664,20287
13308665,20489
13310665,19934
13312666,20469
13314668,20229
13316669,20535
13318669,20839
13320670,20359
13322671,20761
13324673,20699
13326675,20385
13328675,20813
13330677,20465
13332680,20707
13334682,20716
13336682,20271
13338684,20823
13340686,20593
13342689,20693
13344692,20755
13346693,20306
13348695,20805
13350695,20533
13352697,20613
13354700,20725
13356700,20278
13358701,20819
13360704,20593
13362705,20557
13364707,20817
13366708,20381
13368708,21152
13370709,20965
13372709,20848
13374712,21170
13376716,20680
13378717,21152
13380717,21062
13382720,20786
13384720,21186
13386723,20809
13388724,21068
13390727,21094
13392729,20807
13394731,21180
13396733,20844
13398733,21041
13400734,21070
13402734,20307
13404736,20821
13406736,20584
13408738,20574
13410741,20765
13412744,20233
13414747,20784
13416750,20607
13418753,20585
13420753,20807
13422754,20286
13424758,20808
13426760,20623
13428761,20387
13430762,20811
13432764,20303
13434765,20803
13436767,20653
13438769,20473
13440772,20823
13442775,20385
13444775,20734
13446777,20687
13448779,20430
13450782,20831
13452782,20457
13454784,20679
13456786,20738
13458787,20314
13460790,20831
13462792,20463
13464794,20727
13466794,20763
13468797,20291
13470799,21761
13472799,21668
13474800,21714
13476802,21905
13478803,21359
13480806,21914
13482809,21687
13484811,21703
13486811,22232
13488812,22056
13490815,22596
13492819,22425
13494820,22346
13496823,22644
13498825,22108
13500828,22608
13502829,22420
13504830,18709
13506832,18609
13508836,18220
13510837,18579
13512838,18492
13514838,18270
13516838,18634
13518838,18338
13520840,16811
13522843,11355
13524844,11026
13526845,11244
13528845,11092
13530847,11167
13532849,11239
13534849,11014
13536849,11247
13538849,18501
13540851,19636
13542851,20117
13544853,19735
13546855,20029
13548856,20049
13550858,19595
13552861,20120
13554865,23243
13556867,45662
13558870,47096
13560873,46163
13562875,47044
13564876,46615
13566876,46552
13568880,47052
13570883,46276
13572885,63261
13574887,63184
13576891,63046
13578895,63204
13580895,63140
13582895,63224
13584896,63187
13586897,63199
13588897,63293
13590898,63195
13592898,63227
13594898,63237
13596900,63261
13598901,63181
13600903,63221
13602903,63235
13604905,63252
13606905,60550
13608908,45844
13610911,46097
13612914,45219
13614917,45997
13616918,45483
13618919,45453
13620922,46011
13622923,45204
13624923,10721
13626923,7402
13628924,7403
13630926,7399
13632930,7277
13634930,7403
13636930,7368
13638932,7324
13640932,6677
13642932,4927
13644935,4919
13646938,4883
13648940,4877
13650942,4879
13652945,4891
13654948,4891
13656950,4892
13658951,12533
13660954,14114
13662957,14124
13664960,13967
13666961,14212
13668961,14003
13670963,14085
13672964,14177
13674965,14863
13676968,20129
13678969,20259
13680971,20174
13682975,20469
13684978,19970
13686980,20564
13688981,20298
13690984,20243
13692987,20990
13694991,20663
13696991,21165
13698991,21062
13700992,20740
13702992,21212
13704995,20791
13706997,21071
13708998,21108
13711001,20342
13713003,20839
13715005,20552
13717006,20681
13719007,20713
13721009,20293
13723010,20773
13725012,20560
13727014,19997
13729015,20146
13731015,19608
13733018,20051
13735020,19954
13737022,19847
13739024,20093
13741024,19687
13743027,20037
13745027,20346
13747029,20013
13749030,20491
13751032,20166
13753035,20381
13755035,20377
13757039,19944
13759041,20465
13761044,20205
13763046,20298
13765049,20345
13767050,19904
13769051,20475
13771054,20213
13773055,20272
13775058,20421
13777058,19956
13779062,20769
13781064,20603
13783064,20527
13785065,20810
13787068,20266
13789070,20793
13791071,20634
13793073,20509
13795075,21145
13797075,21489
13799076,21828
13801077,21830
13803080,21412
13805080,21954
13807082,21567
13809084,21817
13811087,21906
13813088,21389
13815091,21927
13817091,21616
13819093,21758
13821093,21883
13823095,21450
13825097,21892
13827100,21678
13829103,21662
13831105,21163
13833105,20636
13835105,21158
13837108,20958
13839108,20841
13841110,21203
13843112,20730
13845115,21107
13847115,22153
13849118,22153
13851120,22584
13853120,22262
13855120,22566
13857121,22522
13859121,22086
13861123,22684
13863125,22361
13865127,22107
13867128,22247
13869128,21682
13871131,22298
13873131,22068
13875133,21971
13877137,22324
13879141,21724
13881145,22517
13883145,22419
13885146,22341
13887150,22650
13889154,22072
13891156,22623
13893159,22400
13895163,22370
13897163,22600
13899165,22404
13901165,22961
13903165,22876
13905168,22554
13907171,22981
13909171,22496
13911174,22932
13913176,22910
13915180,22967
13917183,24119
13919186,23608
13921187,24002
13923189,23990
13925190,23633
13927191,24114
13929191,23775
13931193,23939
13933195,24596
13935198,24251
13937202,24731
13939202,24509
13941203,24689
13943205,24810
13945208,24200
13947209,24843
13949209,24621
13951210,24940
13953210,25163
13955211,24597
13957213,25163
13959215,24982
13961217,24819
13963218,25206
13965220,24601
13967223,25468
13969223,25412
13971225,25142
13973228,25600
13975230,25025
13977231,25519
13979232,25385
13981235,25095
13983239,25621
13985239,26000
13987240,26400
13989241,26532
13991244,26099
13993248,26696
13995248,26131
13997251,26554
13999251,26545
14001253,26072
14003253,26699
14005254,26169
14007254,26498
14009255,26596
14011256,26059
14013256,26674
14015257,26247
14017258,26383
14019261,27680
14021263,27123
14023266,27820
14025267,27486
14027268,27486
14029269,27692
14031272,27126
14033274,27769
14035274,27883
14037278,28089
14039292,28213
14041295,27831
14043296,28522
14045297,28088
14047297,28275
14049301,28433
14051302,27831
14053304,29444
14055304,29266
14057307,29357
14059310,29505
14061311,28903
14063315,29591
14065317,29196
14067318,29354
14069320,29942
14071322,30334
14073324,31102
14075325,30652
14077325,30690
14079328,31026
14081329,30365
14083329,31069
14085330,30756
14087330,31276
14089333,31765
14091334,31050
14093336,31798
14095336,31525
14097340,31403
14099340,31782
14101343,31082
14103345,31726
14105346,31853
14107348,31622
14109351,32154
14111353,31446
14113354,32100
14115357,31814
14117359,31740
14119363,32123
14121363,32649
14123365,33909
14125365,33752
14127366,33354
14129370,33984
14131371,33278
14133374,33847
14135376,33631
14137378,33385
14139382,34952
14141382,34405
14143384,34963
14145384,34882
14147385,34481
14149387,35089
14151388,34460
14153391,34969
14155394,35379
14157396,35534
14159398,36162
14161400,35390
14163401,36059
14165403,35866
14167404,35595
14169404,36098
14171407,35387
14173410,36486
14175411,36225
14177411,35880
14179411,36565
14181412,35836
14183415,36434
14185417,36277
14187420,35921
14189424,36737
14191427,36484
14193431,37250
14195433,36885
14197436,36763
14199438,37248
14201441,36464
14203443,37593
14205444,36805
14207445,37151
14209448,37608
14211450,36810
14213452,37600
14215455,37187
14217457,37327
14219459,37577
14221460,36885
14223460,37522
14225461,36085
14227463,36239
14229466,36446
14231468,35744
14233470,36606
14235471,36079
14237472,36252
14239472,36521
14241474,34614
14243477,35080
14245477,34712
14247479,34654
14249481,35060
14251483,34315
14253484,35050
14255487,34660
14257489,34674
14259492,33977
14261495,33254
14263498,33986
14265499,33598
14267499,33585
14269500,33941
14271501,33196
14273503,33982
14275504,32174
14277506,31464
14279509,31832
14281510,31082
14283511,31800
14285511,31507
14287511,31264
14289513,31792
14291513,31106
14293517,30754
14295519,30448
14297522,30181
14299524,30681
14301526,30056
14303528,30630
14305529,30488
14307530,30070
14309532,29819
14311534,28284
14313536,28785
14315536,28715
14317537,28244
14319538,28875
14321541,28348
14323543,28654
14325543,28804
14327544,26976
14329548,27427
14331551,26980
14333553,27266
14335555,27373
14337556,26744
14339556,27434
14341556,26843
14343556,27069
14345559,27381
14347559,26762
14349561,27382
14351562,27190
14353563,27002
14355564,27418
14357566,26812
14359567,27346
14361567,26624
14363569,26150
14365571,26682
14367572,26450
14369572,26542
14371574,26610
14373577,26043
14375577,26720
14377580,26253
14379582,26110
14381583,26266
14383585,25647
14385585,26317
14387585,26069
14389585,25909
14391586,26315
14393587,25669
14395588,26267
14397588,26109
14399588,25754
14401590,26303
14403592,25792
14405592,26195
14407594,26109
14409597,25710
14411598,26322
14413600,25838
14415601,26129
14417602,26202
14419603,25658
14421604,26295
14423605,25981
14425608,26020
14427611,26217
14429614,25240
14431617,25602
14433618,25262
14435620,25342
14437620,25592
14439624,24925
14441628,25560
14443629,25313
14445632,25254
14447633,25568
14449635,24959
14451636,25400
14453640,25391
14455644,25167
14457644,25561
14459645,25032
14461647,25548
14463649,25768
14465649,26083
14467649,26696
14469650,26213
14471652,26459
14473653,26608
14475653,26044
14477655,26686
14479656,26340
14481657,26347
14483657,26664
14485658,26054
14487658,26642
14489662,26458
14491664,26249
14493666,26725
14495668,26041
14497668,26599
14499672,26129
14501674,25755
14503676,26349
14505676,25731
14507677,26216
14509681,26126
14511681,25782
14513683,26370
14515683,25910
14517683,26119
14519686,26199
14521686,25607
14523687,26313
14525688,25985
14527689,25952
14529690,26313
14531691,25639
14533692,26619
14535692,26434
14537696,26225
14539698,26692
14541700,26066
14543700,26594
14545703,26509
14547706,26152
14549706,58680
14551709,63187
14553713,63199
14555717,63235
14557720,63189
14559724,63243
14561727,63203
14563728,63144
14565729,63217
14567730,32330
14569731,26440
14571731,26468
14573733,26660
14575735,26005
14577736,26666
14579739,26418
14581741,26303
14583742,26580
14585742,25724
14587745,26263
14589746,26117
14591750,25792
14593752,26349
14595753,25742
14597753,26175
14599753,26222
14601757,26044
14603757,26699
14605759,26265
14607759,26446
14609759,26607
14611762,26018
14613762,26654
14615765,26359
14617767,26380
14619767,26638
14621770,26020
14623773,26664
14625773,26380
14627773,26163
14629776,26678
14631776,26060
14633776,26562
14635776,26249
14637778,25728
14639779,26354
14641782,25774
14643782,26133
14645783,26230
14647787,25704
14649788,26311
14651790,25951
14653792,25372
14655793,25531
14657795,24977
14659796,25576
14661797,25380
14663799,25266
14665802,25535
14667806,25010
14669809,25100
14671810,24611
14673812,24504
14675816,24832
14677820,24195
14679823,24829
14681824,24569
14683824,24472
14685827,24834
14687829,24612
14689833,25190
14691837,25010
14693838,24798
14695841,25198
14697842,24694
14699843,25152
14701843,25052
14703845,24697
14705848,25278
14707849,24652
14709850,25102
14711854,25034
14713857,24674
14715857,25226
14717857,24799
14719859,25042
14721859,25124
14723860,24535
14725862,25202
14727863,24905
14729863,24972
14731865,25160
14733866,24779
14735866,25184
14737867,25008
14739869,24768
14741871,25242
14743875,24639
14745878,25192
14747879,25061
14749881,24733
14751882,25187
14753882,24773
14755882,25069
14757885,25136
14759888,24588
14761891,25203
14763895,24826
14765897,25063
14767898,25159
14769900,24613
14771903,25205
14773903,22799
14775903,22831
14777906,22858
14779907,22441
14781909,23012
14783910,22749
14785911,22750
14787914,22995
14789916,22406
14791916,23025
14793919,22782
14795920,22596
14797920,23001
14799923,22427
14801925,22920
14803925,22854
14805925,22526
14807926,63253
14809926,63179
14811926,63205
14813929,63251
14815932,63218
14817932,63187
14819932,63158
14821932,62956
14823933,53705
14825934,23508
14827935,22522
14829936,22301
14831940,22648
14833940,22093
14835940,22585
14837940,22554
14839942,22091
14841944,22988
14843945,22671
14845946,22845
14847948,22983
14849950,22446
14851953,22992
14853955,22734
14855955,22702
14857955,23321
14859957,23515
14861960,24079
14863962,23937
14865964,23702
14867964,24115
14869964,23749
14871965,23954
14873967,24026
14875969,25182
14877971,26326
14879973,25952
14881977,26021
14883979,26134
14885981,25495
14887983,26333
14889987,25881
14891989,26103
14893991,28390
14895994,27827
14897994,28517
14899998,28193
14901999,28127
14904001,28478
14906001,27840
14908002,28459
14910004,27694
14912006,27279
14914009,27793
14916012,27133
14918012,27694
14920013,27644
14922013,27249
14924016,27825
14926018,27209
14928019,25738
14930020,25448
14932023,25054
14934024,25597
14936024,25094
14938025,25377
14940028,25465
14942031,24929
14944034,25625
14946038,25151
14948039,25484
14950041,25492
14952041,25104
14954045,25554
14956046,25228
14958047,25381
14960049,25509
14962053,22680
14964056,23023
14966057,22730
14968057,22803
14970059,22971
14972062,22444
14974063,22979
14976064,22739
14978064,22199
14980065,21937
14982069,21433
14984071,21886
14986073,21868
14988076,21489
14990076,21941
14992079,21559
14994080,21846
14996082,21224
14998083,20699
15000085,21193
15002086,20848
15004088,21014
15006089,21030
15008091,20623
15010092,21166
15012095,20827
15014097,20249
15016098,20466
15018101,19964
15020105,20418
15022107,20305
15024107,20137
15026108,20479
15028108,20102
15030111,20636
15032115,20743
15034116,20367
15036118,20763
15038120,20547
15040121,20713
15042122,20836
15044124,20269
15046125,20835
15048129,20529
15050131,20600
15052131,20799
15054132,20296
15056134,20801
15058135,20663
15060138,20479
15062139,20833
15064141,20358
15066144,20753
15068144,20675
15070147,20417
15072149,20820
15074150,20415
15076150,20724
15078152,20736
15080154,20318
15082156,21170
15084158,20862
15086158,20996
15088161,21155
15090161,20651
15092164,21194
15094165,20975
15096166,20910
15098166,21127
15100167,20637
15102167,21139
15104171,21012
15106174,20837
15108176,21148
15110179,20712
15112181,21114
15114182,21050
15116182,20491
15118184,20825
15120187,20407
15122191,20679
15124193,20711
15126195,20316
15128197,20731
15130198,20475
15132199,20639
15134200,20783
15136201,20247
15138204,20805
15140205,20601
15142208,20538
15144208,20827
15146212,20309
15148214,20749
15150218,20623
15152221,20513
15154223,20811
15156225,20347
15158225,20808
15160229,20692
15162230,20449
15164230,20823
15166233,20443
15168235,20763
15170236,20692
15172239,20158
15174241,20823
15176244,20448
15178246,20735
15180249,20694
15182252,20295
15184254,20831
15186255,20508
15188258,20656
15190260,20767
15192264,20456
15194265,21923
15196269,21626
15198272,21804
15200273,21860
15202274,21350
15204276,21937
15206279,21707
15208280,22306
15210283,22610
15212283,22056
15214287,22635
15216288,22432
15218290,22286
15220290,22642
15222291,21465
15224293,18713
15226294,18468
15228294,18306
15230296,18628
15232299,18195
15234303,18590
15236305,18430
15238306,12127
15240308,11286
15242311,10995
15244314,11232
15246316,11164
15248317,11089
15250320,11226
15252322,14150
15254322,19808
15256325,20039
15258326,19611
15260326,20112
15262330,19813
15264331,19962
15266331,20101
15268334,42118
15270334,46692
15272337,46888
15274339,46384
15276341,47056
15278342,46334
15280342,46995
15282342,56620
15284343,63300
15286346,63187
15288347,63173
15290350,63239
15292350,63194
15294350,63097
15296351,63218
15298353,63241
15300355,63269
15302359,63265
15304359,63205
15306361,63221
15308361,63239
15310361,63129
15312362,63236
15314365,46697
15316366,45247
15318368,45977
15320368,45415
15322368,45596
15324372,45941
15326374,45187
15328376,12175
15330379,7395
15332379,7434
15334379,7411
15336379,7319
15338380,7439
15340380,7346
15342382,6779
15344385,4959
15346387,4855
15348389,4913
15350391,4877
15352391,4878
15354395,4911
15356396,4878
15358397,12854
15360399,14204
15362399,13815
15364401,14177
15366404,14076
15368406,14001
15370408,14204
15372408,16073
15374412,20355
15376413,20589
15378415,19944
15380419,20470
15382422,20145
15384426,20364
15386427,20439
15388427,20612
15390429,21197
15392432,20879
15394434,21014
15396434,21128
15398435,20695
15400439,21162
15402440,20855
15404441,20505
15406444,20783
15408444,20343
15410444,20755
15412447,20660
15414450,20403
15416450,20817
15418452,19789
15420455,20064
15422455,20016
15424457,19635
15426458,20109
15428459,19703
15430459,19956
15432459,20138
15434462,19916
15436464,20447
15438465,20226
15440468,20253
15442469,20425
15444469,19935
15446473,20453
15448473,20277
15450476,20148
15452480,20444
15454482,19996
15456483,20411
15458483,20346
15460486,20072
15462489,20641
15464490,20411
15466492,20709
15468493,20718
15470494,20319
15472496,20825
15474498,20493
15476502,20665
15478503,21795
15480503,21382
15482505,22087
15484505,21722
15486507,21594
15488507,21948
15490510,21423
15492510,50869
15494510,63215
15496511,63238
15498513,63243
15500516,63243
15502516,63279
15504519,63289
15506522,63045
15508523,27338
15510525,21140
15512526,21280
15514528,20656
15516530,21145
15518532,20962
15520532,20835
15522533,21858
15524536,22239
15526536,22568
15528536,22536
15530537,22099
15532539,22675
15534539,22346
15536543,22430
15538545,22284
15540548,21742
15542548,22306
15544549,22080
15546552,22002
15548555,22296
15550555,21787
15552558,22404
15554559,22505
15556559,22259
15558559,22590
15560562,22137
15562563,22576
15564564,22562
15566565,22104
15568565,22966
15570569,22664
15572571,22778
15574571,22938
15576573,22433
15578574,23107
15580574,22726
15582578,23243
15584580,24086
15586583,23501
15588585,24098
15590585,23878
15592587,23769
15594591,24090
15596591,23551
15598595,24687
15600596,24644
15602598,24403
15604600,24814
15606603,24275
15608605,24752
15610607,24682
15612610,24515
15614611,25196
15616612,24717
15618613,25080
15620616,25112
15622617,24648
15624619,25184
15626621,24818
15628623,25459
15630623,25500
15632626,24929
15634629,25633
15636630,25198
15638633,25421
15640637,25501
15642639,25534
15644642,26634
15646642,26354
15648644,26400
15650648,26643
15652649,26025
15654652,26666
15656655,26405
15658658,26324
15660658,26683
15662661,26035
15664663,26580
15666665,26466
15668667,26257
15670671,26675
15672673,26596
15674675,27722
15676675,27603
15678675,27251
15680677,27807
15682679,27237
15684681,27656
15686683,27666
15688684,27822
15690686,28558
15692688,27989
15694690,28330
15696692,28438
15698692,27845
15700694,28512
15702697,28711
15704699,29329
15706699,29633
15708699,28917
15710700,29589
15712701,29292
15714702,29177
15716706,29656
15718707,30285
15720707,31014
15722710,30893
15724712,30529
15726713,31118
15728716,30403
15730718,31000
15732720,31243
15734722,31175
15736722,31756
15738723,31313
15740726,31681
15742729,31620
15744732,31149
15746733,31806
15748735,31550
15750737,31973
15752741,32025
15754745,31418
15756748,32210
15758751,31691
15760754,31983
15762758,33169
15764760,33259
15766761,33974
15768761,33565
15770764,33758
15772765,33867
15774766,33187
15776767,33920
15778770,34624
15780772,34700
15782774,35038
15784775,34331
15786775,34740
15788776,34659
15790780,34654
15792781,35736
15794784,35381
15796784,36243
15798785,35806
15800787,35699
15802788,36143
15804790,35369
15806791,36023
15808794,36176
15810795,35872
15812795,36650
15814796,35844
15816799,36480
15818800,36309
15820803,35960
15822803,36966
15824806,36584
15826808,37214
15828809,37003
15830811,36634
15832811,37276
15834812,36554
15836814,37107
15838815,37405
15840817,36949
15842820,37661
15844821,36909
15846823,37418
15848823,37479
15850823,36891
15852823,37015
15854826,35886
15856828,36367
15858828,36457
15860830,35791
15862833,36568
15864837,35906
15866838,36312
15868839,35106
15870842,34385
15872844,35090
15874845,34423
15876848,34807
15878848,35040
15880850,34337
15882852,34317
15884855,33528
15886858,33778
15888862,33887
15890865,33173
15892868,33981
15894870,33406
15896871,33761
15898872,31814
15900873,31147
15902875,31812
15904879,31221
15906880,31631
15908883,31683
15910885,31107
15912888,31243
15914891,30078
15916894,30507
15918894,30434
15920895,30020
15922896,30714
15924899,30221
15926900,30452
15928900,28859
15930902,28233
15932903,28903
15934904,28497
15936905,28595
15938906,28823
15940906,28164
15942906,27783
15944909,27111
15946911,27056
15948913,27393
15950913,26799
15952915,27343
15954917,27312
15956919,26892
15958919,27462
15960922,26888
15962925,27319
15964926,27330
15966927,26812
15968931,27395
15970933,26967
15972935,26704
15974937,26558
15976938,26012
15978939,26698
15980940,26302
15982940,26426
15984943,26621
15986943,25984
15988947,26340
15990951,25995
15992951,25990
15994953,26225
15996955,25628
15998955,26233
16000956,26127
16002956,25756
16004958,26305
16006959,25787
16008961,26201
16010965,26165
16012967,25748
16014967,26333
16016967,25864
16018970,26130
16020970,26246
16022973,25682
16024975,26550
16026976,25970
16028976,26009
16030979,26318
16032983,25110
16034983,25569
16036986,25288
16038988,25268
16040992,25570
16042992,24982
16044993,25514
16046997,25357
16048998,25202
16050999,25596
16053000,25107
16055003,25415
16057005,25455
16059006,25046
16061009,25627
16063012,25869
16065015,26494
16067016,26403
16069017,26001
16071018,26680
16073020,26324
16075021,26365
16077021,26647
16079022,25986
16081022,26636
16083022,26444
16085025,26247
16087025,26729
16089026,26058
16091027,26612
16093031,26225
16095034,25788
16097035,26325
16099037,25769
16101039,26183
16103041,26159
16105042,25712
16107046,26354
16109049,25825
16111052,26158
16113053,26193
16115055,25673
16117055,26323
16119055,25910
16121058,26077
16123061,26526
16125063,26014
16127067,26764
16129070,26354
16131074,26466
16133078,26592
16135078,26002
16137081,26662
16139083,26345
16141087,26366
16143088,26614
16145090,25997
16147091,26636
16149091,26410
16151094,26311
16153095,26654
16155096,26071
16157100,26656
16159103,26447
16161103,26179
16163105,26676
16165108,26090
16167108,26503
16169108,26225
16171110,25685
16173111,26178
16175111,25890
16177111,26087
16179111,26281
16181112,25676
16183112,26575
16185115,26414
16187115,26279
16189119,26694
16191121,26067
16193123,26656
16195125,26436
16197125,26161
16199128,26692
16201131,25976
16203132,26580
16205132,26536
16207135,26165
16209138,26632
16211141,26185
16213143,26239
16215145,26198
16217146,25709
16219150,26311
16221151,25875
16223154,26095
16225154,26251
16227156,25571
16229157,25619
16231159,25250
16233161,25322
16235163,25524
16237164,24937
16239165,25570
16241167,25357
16243170,24672
16245172,24895
16247173,24248
16249175,24802
16251179,24623
16253182,24487
16255183,24795
16257184,24291
16259186,25138
16261186,25116
16263188,24655
16265191,25236
16267191,24755
16269192,25107
16271195,25090
16273197,24609
16275199,25218
16277201,24770
16279203,25071
16281205,25156
16283207,24609
16285210,25232
16287211,24807
16289211,24986
16291214,25103
16293215,24557
16295215,25210
16297215,24957
16299216,24893
16301216,25211
16303220,24589
16305223,25200
16307226,24989
16309226,24841
16311227,25215
16313231,24642
16315234,25106
16317235,25004
16319235,24774
16321239,25194
16323241,24599
16325242,25152
16327243,25046
16329244,24651
16331245,25212
16333249,22866
16335252,22951
16337253,22914
16339253,22470
16341254,23011
16343256,22608
16345256,22900
16347260,22927
16349261,22425
16351263,22984
16353265,22671
16355266,22751
16357267,22967
16359268,22642
16361268,22988
16363271,23100
16365273,23063
16367276,23401
16369292,22786
16371296,23362
16373299,23068
16375301,23195
16377302,23254
16379305,22052
16381309,22706
16383312,22328
16385312,22546
16387312,22627
16389314,22051
16391316,22641
16393319,22721
16395320,22686
16397322,22973
16399325,22456
16401327,22959
16403329,22832
16405329,22606
16407329,23322
16409329,23624
16411330,24080
16413330,24055
16415330,23568
16417330,24142
16419333,23764
16421334,23915
16423338,25885
16425339,25661
16427341,26247
16429342,25981
16431342,25964
16433345,26339
16435349,25639
16437352,26812
16439353,28160
16441356,28070
16443359,28472
16445360,27819
16447362,28509
16449364,28266
16451366,28083
16453369,27922
16455369,27197
16457371,27734
16459372,27580
16461372,27231
16463373,27865
16465375,27241
16467376,27194
16469377,25478
16471380,25052
16473383,25650
16475384,25206
16477385,25445
16479388,25475
16481388,25032
16483389,25599
16485391,25178
16487394,25454
16489397,25424
16491399,24994
16493401,25600
16495405,25200
16497405,24830
16499407,22980
16501410,22450
16503414,23013
16505415,22730
16507417,22843
16509420,22951
16511421,22437
16513422,22057
16515424,21661
16517427,21711
16519430,21879
16521434,21401
16523436,21878
16525437,21718
16527438,21513
16529440,21180
16531443,20632
16533446,21177
16535446,20965
16537446,20887
16539448,21152
16541450,20691
16543451,20532
16545451,20328
16547452,20145
16549454,20463
16551457,20056
16553460,20299
16555464,20375
16557465,20136
16559468,20829
16561470,20458
16563473,20718
16565475,20739
16567476,20311
16569477,20804
16571477,20489
16573478,20659
16575482,20791
16577485,20308
16579486,20813
16581488,20557
16583490,20647
16585491,20801
16587491,20287
16589495,20837
16591497,20616
16593499,20553
16595499,20824
16597499,20369
16599502,20783
16601504,20665
16603507,20773
16605508,21178
16607508,20747
16609510,21072
16611513,21105
16613514,20725
16615515,21204
16617517,20862
16619519,21026
16621521,21122
16623523,20627
16625523,21160
16627527,20912
16629530,20968
16631533,21140
16633533,20323
16635533,20825
16637536,20624
16639540,20560
16641543,20827
16643544,20351
16645544,20752
16647547,48493
16649549,63271
16651551,63187
16653551,63167
16655554,63102
16657555,63199
16659558,63229
16661562,63223
16663564,27805
16665564,21038
16667564,20378
16669566,20703
16671568,20692
16673568,20357
16675571,20855
16677574,20485
16679574,20709
16681577,20781
16683577,20258
16685580,20810
16687581,20582
16689585,20631
16691586,20792
16693586,21284
16695589,21899
16697589,21761
16699590,21553
16701593,21941
16703594,21541
16705596,21856
16707596,22236
16709596,22059
16711599,22654
16713602,22360
16715602,22435
16717605,22622
16719608,22079
16721608,22620
16723611,18858
16725613,18448
16727614,18602
16729618,17985
16731621,18635
16733623,18480
16735626,18429
16737626,15033
16739630,11070
16741634,11220
16743634,11188
16745634,11080
16747635,11228
16749637,11090
16751638,11150
16753639,19342
16755642,19564
16757642,20078
16759645,19880
16761648,19843
16763649,20077
16765650,19577
16767650,30514
16769650,46651
16771652,46238
16773653,47086
16775653,46482
16777657,46665
16779658,46997
16781658,46219
16783659,63180
16785663,63271
16787667,63137
16789670,63179
16791673,63198
16793677,63167
16795678,63144
16797680,63235
