10,19932
2010,19605
4012,19800
6013,19910
8015,19759
10017,20337
12018,20044
14020,20158
16023,20285
18023,19793
20025,20338
22026,20122
24026,20082
26029,20289
28029,19906
30031,20291
32031,20192
34032,20029
36033,20337
38033,19908
40036,20286
42038,20230
44039,19889
46042,20385
48046,20227
50047,20587
52047,20599
54066,20327
56069,20685
58070,20229
60073,20633
62074,20585
64074,20257
66076,20706
68078,21226
70079,21652
72082,21684
74083,21258
76085,21801
78086,21436
80086,21630
82089,21730
84091,21257
86092,21591
88092,21480
90094,21622
92097,21728
94100,21216
96104,21766
98106,21518
100106,21640
102109,21772
104112,21218
106113,21756
108115,20889
110117,20810
112119,21064
114120,20478
116122,21024
118122,20817
120125,20771
122125,21020
124126,20519
126127,20962
128130,22192
130130,22119
132130,22476
134130,22101
136130,22354
138132,22410
140134,21979
142134,22487
144137,22173
146140,22353
148140,22119
150144,21620
152144,22152
154147,21840
156147,21976
158147,22087
160150,21582
162152,22137
164153,21833
166153,21907
168156,22473
170157,21936
172159,22493
174162,22203
176164,22296
178167,22484
180168,21896
182168,22486
184171,22315
186174,22245
188176,22819
190178,22247
192182,22853
194184,22650
196186,22553
198190,22874
200193,22271
202194,22808
204195,22676
206197,22511
208198,23867
210202,23392
212203,23865
214204,23798
216204,23588
218208,23977
220208,23385
222211,23912
224214,23697
226217,23594
228217,24623
230217,24160
232220,24592
234223,24489
236225,24266
238227,24579
240227,24204
242228,24597
244229,24553
246232,24124
248232,24977
250233,24539
252234,24893
254235,24930
256236,24502
258237,25022
260237,24644
262237,24846
264241,24953
266241,24458
268244,25385
270246,25109
272250,25435
274252,25385
276255,24758
278257,25417
280257,25114
282260,25164
284262,25359
286265,24768
288265,26390
290268,26190
292268,26103
294269,26498
296270,25747
298271,26487
300272,26290
302273,26002
304273,26526
306277,25905
308279,26431
310281,26298
312283,26028
314284,26504
316284,25930
318285,26436
320286,26331
322289,25997
324292,26541
326294,25976
328297,27414
330301,27464
332302,27020
334304,27612
336306,27049
338309,27503
340310,27512
342310,27020
344313,27648
346314,27054
348316,28092
350317,28155
352320,27709
354324,28340
356327,27822
358330,28120
360331,28154
362331,27687
364331,28404
366332,27821
368334,29210
370337,29304
372338,28676
374338,29442
376339,29029
378343,29196
380343,29262
382343,28749
384346,29389
386347,29081
388347,30506
390348,30826
392348,30177
394348,30865
396348,30586
398349,30343
400350,30562
402350,30095
404354,30856
406358,30525
408361,31048
410364,31584
412364,30874
414366,31574
416366,31337
418367,31094
420369,31609
422372,30895
424373,31554
426419,30899
428421,31971
430421,31620
432421,31475
434424,31784
436424,31272
438425,31893
440427,31634
442429,31457
444431,31938
446434,31263
448436,33655
450437,33503
452440,33335
454443,33731
456443,33002
458445,33747
460449,33374
462449,33278
464453,33745
466457,32970
468458,34820
470458,34434
472459,34377
474462,34807
476464,34102
478466,34856
480469,34415
482472,34578
484474,34803
486475,34066
488477,35879
490478,35419
492480,35656
494482,35826
496482,35178
498485,35928
500485,35481
502485,35614
504489,35801
506489,35173
508493,36353
510497,35772
512500,36061
514503,36171
516504,35590
518508,36350
520510,35560
522510,36133
524512,36131
526513,35579
528514,37015
530516,36378
532517,36846
534521,36843
536521,36312
538523,37069
540527,36331
542530,36937
544531,36855
546533,35958
548537,37397
550537,36675
552538,37233
554539,37187
556541,36723
558544,37406
560544,36649
562547,37280
564550,37167
566553,36731
568555,36364
570555,35555
572555,36223
574555,36075
576556,35653
578558,36330
580559,35577
582559,36177
584562,36126
586566,35655
588566,34946
590568,34244
592569,34784
594573,34643
596573,34232
598576,34868
600578,34111
602579,34809
604581,34588
606584,34330
608587,33887
610590,33014
612592,33719
614593,33410
616596,33328
618598,33729
620599,33025
622601,33710
624602,33414
626603,33268
628626,31495
630628,30972
632631,31592
634634,30976
636634,31456
638635,31441
640636,30965
642636,31636
644640,30964
646642,31418
648645,30361
650646,29866
652649,30504
654650,29911
656653,30359
658654,30331
660656,29874
662659,30520
664662,29900
666666,30276
668669,28555
670672,28081
672674,28701
674674,28069
676674,28579
678678,28533
680679,28097
682680,28687
684681,28063
686684,28508
688686,27126
690688,26695
692688,27236
694692,26623
696693,27137
698693,27047
700694,26707
702694,27309
704695,26848
706699,27103
708703,27123
710704,26666
712704,27243
714704,26796
716707,27093
718710,27163
720713,26711
722716,27249
724720,26611
726723,27111
728727,26395
730730,25980
732732,26468
734732,25970
736733,26365
738735,26379
740736,25884
742738,26522
744739,26000
746740,26319
748742,26065
750745,25527
752746,26103
754747,25809
756748,25982
758751,26055
760754,25471
762756,26153
764756,25744
766756,25920
768756,26109
770756,25487
772757,26160
774758,25787
776759,25816
778761,26125
780761,25496
782761,26066
784764,25889
786765,25731
788765,26186
790767,25496
792768,26099
794768,25899
796768,25605
798770,26147
800772,25593
802774,26059
804774,25958
806776,25419
808777,25368
810780,24961
812784,25267
814785,25280
816785,24853
818788,25419
820788,24914
822792,25295
824795,25287
826797,24795
828798,25395
830800,24966
832804,25190
834806,25336
836806,24783
838810,25363
840814,24955
842816,25295
844817,25345
846818,24953
848821,26467
850824,26033
852826,26313
854829,26406
856832,25844
858832,26512
860834,26117
862835,26255
864835,26464
866836,25836
868838,26461
870842,26185
872844,26171
874847,26468
876850,25848
878851,26343
880853,26227
882857,26205
884860,26468
886863,25702
888865,26138
890867,25831
892871,25848
894872,26134
896876,25539
898879,26121
900883,25789
902886,25862
904889,26101
906893,25479
908896,26161
910896,25844
912896,25862
914900,26102
916900,25493
918903,25942
920903,25836
922905,25788
924907,26107
926908,25514
928909,26478
930911,26241
932913,26134
934914,26495
936916,25879
938919,26475
940919,26269
942922,26005
944924,26503
946925,25908
948927,26450
950928,26275
952928,25982
954930,26510
956933,25901
958936,26439
960940,26370
962942,25920
964944,26528
966946,25928
968948,26402
970951,26335
972953,26059
974954,26452
976955,25946
978957,26419
980960,26370
982961,25948
984965,26485
986969,25772
988969,26039
990971,25957
992975,25591
994975,26161
996977,25601
998979,25830
1000982,26008
1002982,25528
1004983,26153
1006985,25841
1008988,26282
1010991,26357
1012993,25898
1014997,26526
1016997,25958
1019000,26363
1021002,26357
1023002,25841
1025004,26539
1027004,26091
1029007,26264
1031007,26456
1033009,25854
1035012,26511
1037014,26130
1039018,26215
1041022,26432
1043024,25819
1045026,26506
1047029,25926
1049031,25828
1051032,26058
1053034,25511
1055037,26141
1057037,25769
1059038,25811
1061042,26089
1063044,25483
1065045,26164
1067048,25559
1069048,25100
1071048,25395
1073049,24760
1075050,25375
1077052,25210
1079054,25031
1081058,25399
1083059,24827
1085061,25372
1087062,24967
1089062,24287
1091063,24674
1093064,24140
1095065,24579
1097065,24492
1099068,24146
1101071,24651
1103074,24182
1105076,24557
1107077,24627
1109077,24479
1111079,25052
1113081,24531
1115083,24915
1117086,24839
1119088,24467
1121088,25030
1123089,24594
1125091,24873
1127091,24959
1129094,24465
1131097,25070
1133097,24657
1135099,24874
1137099,24951
1139101,24437
1141102,25050
1143105,24673
1145107,24859
1147108,24975
1149108,24455
1151111,25058
1153112,24697
1155115,24831
1157118,24935
1159119,24415
1161122,25026
1163123,24665
1165124,24833
1167124,24995
1169127,24427
1171127,25012
1173128,24729
1175128,24741
1177129,24997
1179131,24408
1181132,25020
1183133,24773
1185158,24927
1187162,24887
1189165,24493
1191165,25056
1193165,24598
1195165,24873
1197168,24969
1199170,24440
1201172,25061
1203174,24646
1205176,24839
1207179,24951
1209182,24074
1211184,22920
1213185,22508
1215187,22682
1217190,22752
1219190,22278
1221192,22856
1223194,22526
1225284,22771
1227284,22272
1229286,22926
1231288,22533
1233288,22656
1235288,22826
1237288,22285
1239292,22822
1241294,22600
1243295,22584
1245296,22796
1247298,22326
1249298,22807
1251299,22662
1253300,22459
1255304,23234
1257308,22691
1259312,23161
1261316,23025
1263317,22874
1265318,23235
1267321,22674
1269323,23180
1271325,23015
1273327,22959
1275330,23207
1277333,21918
1279335,22431
1281336,22324
1283338,22085
1285341,22474
1287341,22052
1289341,22384
1291344,22370
1293346,21993
1295349,22485
1297350,22083
1299352,22681
1301352,22768
1303353,22285
1305354,22878
1307357,22564
1309357,22677
1311359,22739
1313360,22286
1315363,22818
1317363,22552
1319364,22581
1321365,22824
1323368,22296
1325369,22852
1327370,22666
1329373,22573
1331376,23650
1333378,23372
1335381,23849
1337382,23683
1339386,23733
1341388,23919
1343391,23373
1345394,23965
1347394,23681
1349396,23734
1351399,25771
1353400,25470
1355402,26106
1357405,25845
1359409,25844
1361412,26105
1363413,25480
1365415,26173
1367419,25788
1369423,25912
1371425,27903
1373426,27648
1375426,28274
1377427,28043
1379430,27945
1381432,28264
1383434,27658
1385437,28308
1387441,27939
1389443,28116
1391443,27702
1393446,26857
1395446,27626
1397446,27282
1399446,27329
1401448,27554
1403450,26965
1405452,27659
1407452,27227
1409452,27265
1411453,25784
1413453,24817
1415455,25408
1417456,25167
1419457,25104
1421460,25444
1423461,24921
1425461,25359
1427461,25200
1429463,25034
1431464,25436
1433464,24783
1435465,25335
1437466,25256
1439467,24887
1441469,25412
1443471,24909
1445472,25320
1447472,25287
1449473,24825
1451475,23312
1453476,22421
1455477,22794
1457479,22722
1459481,22325
1461481,22832
1463481,22440
1465481,22736
1467482,22822
1469485,22333
1471486,21963
1473487,21511
1475487,21610
1477490,21712
1479493,21243
1481497,21774
1483499,21374
1485501,21684
1487501,21722
1489501,21245
1491503,21157
1493503,20777
1495506,20823
1497509,21018
1499509,20485
1501512,21041
1503515,20796
1505517,20787
1507518,20968
1509520,20503
1511521,20469
1513521,20207
1515521,20004
1517524,20301
1519525,19886
1521528,20272
1523530,20190
1525531,19981
1527534,20320
1529538,19832
1531542,20585
1533543,20529
1535544,20352
1537544,20712
1539544,20293
1541546,20602
1543549,20575
1545551,20283
1547551,20716
1549552,20307
1551552,20589
1553555,20613
1555559,20200
1557559,20687
1559560,20310
1561560,20521
1563560,20663
1565561,20150
1567561,20715
1569565,20390
1571568,20531
1573570,20606
1575573,20144
1577574,20691
1579578,20357
1581580,20519
1583581,20591
1585584,20132
1587587,20660
1589587,20413
1591589,20763
1593592,20977
1595592,20424
1597592,21031
1599592,20779
1601593,20775
1603595,20988
1605597,20510
1607598,20984
1609598,20828
1611598,20649
1613601,21033
1615604,20546
1617607,20986
1619609,20851
1621609,20699
1623612,21054
1625616,20587
1627618,20996
1629620,20884
1631622,20315
1633624,20676
1635624,20271
1637625,20581
1639625,20662
1641626,20221
1643628,20726
1645630,20323
1647632,20562
1649636,20596
1651637,20150
1653641,20593
1655641,20385
1657641,20545
1659644,20639
1661646,20169
1663647,20659
1665649,20352
1667650,20583
1669650,20644
1671652,20168
1673654,20671
1675657,20387
1677659,20555
1679661,20613
1681662,20148
1683662,20670
1685663,20485
1687663,20441
1689665,20637
1691665,20111
1693665,20669
1695667,20525
1697669,20457
1699670,20668
1701670,20190
1703673,20684
1705675,20526
1707678,20371
1709681,20653
1711681,21214
1713684,21770
1715688,21545
1717691,21585
1719694,21758
1721696,21056
1723697,21754
1725700,21560
1727701,21497
1729704,21750
1731707,21916
1733709,22440
1735711,22300
1737713,22159
1739714,22510
1741715,21961
1743717,22485
1745721,22313
1747723,22157
1749727,22492
1751728,18435
1753730,18521
1755730,18356
1757730,18262
1759730,18472
1761733,18009
1763735,18458
1765737,18337
1767738,18248
1769738,18512
1771740,11653
1773740,11148
1775743,11071
1777743,11042
1779744,11153
1781746,10903
1783748,11131
1785748,11098
1787750,10949
1789751,11131
1791754,18734
1793757,19821
1795759,19856
1797762,19494
1799765,19968
1801765,19604
1803766,19843
1805769,19843
1807771,19494
1809774,19992
1811777,43428
1813778,46197
1815778,46775
1817781,45965
1819781,46803
1821785,46185
1823786,46410
1825789,46680
1827790,46065
1829791,46964
1831792,62938
1833794,62976
1835796,62955
1837797,62992
1839799,62956
1841799,62965
1843799,62951
1845799,62926
1847802,62972
1849806,62929
1851809,62952
1853812,63099
1855815,63025
1857818,63029
1859819,63027
1861821,62994
1863823,63002
1865824,62984
1867824,63032
1869824,63018
1871825,49329
1873828,45037
1875831,45797
1877832,45077
1879832,45463
1881835,45601
1883837,44955
1885840,45780
1887842,44928
1889844,45499
1891845,11041
1893846,7418
1895849,7314
1897852,7195
1899855,7358
1901857,7309
1903858,7260
1905861,7329
1907862,7229
1909865,7306
1911866,5114
1913869,4817
1915870,4857
1917871,4824
1919871,4845
1921873,4867
1923876,4780
1925878,4851
1927881,4837
1929882,4838
1931883,13402
1933884,13827
1935885,14020
1937885,14039
1939885,13755
1941888,14082
1943890,13937
1945892,13997
1947894,14081
1949897,13773
1951898,19799
1953898,20152
1955900,20011
1957901,20305
1959903,19843
1961903,20274
1963903,20241
1965906,19886
1967906,20330
1969910,19837
1971912,20876
1973914,20976
1975916,20559
1977918,21018
1979918,20694
1981921,20900
1983923,20938
1985923,20501
1987925,21041
1989929,20707
1991932,20649
1993934,20674
1995937,20188
1997940,20651
1999940,20356
2001943,20497
2003945,20642
2005948,20253
2007951,20640
2009954,20393
2011956,19851
2013957,19928
2015959,19478
2017962,19960
2019965,19696
2021965,19755
2023966,19940
2025970,19442
2027971,19964
2029971,19774
2031972,19986
2033974,20362
2035978,19841
2037979,20301
2039983,20077
2041986,20130
2043990,20321
2045993,19813
2047996,20282
2049996,20172
2051998,20018
2054001,20251
2056002,19832
2058004,20229
2060007,20188
2062008,19964
2064009,20315
2066010,19915
2068013,20261
2070015,20213
2072016,20230
2074016,20682
2076016,20350
2078017,20537
2080017,20625
2082019,20193
2084019,20687
2086023,20397
2088026,20546
2090029,20601
2092032,21048
2094035,21786
2096037,21537
2098040,21634
2100040,21746
2102041,21236
2104043,21779
2106044,21499
2108046,21575
2110048,21738
2112050,21334
2114052,21796
2116052,21523
2118054,21535
2120054,21762
2122055,21250
2124056,21780
2126059,21626
2128060,21467
2130064,21766
2132066,20576
2134068,20988
2136071,20811
2138073,20778
2140075,20993
2142077,20535
2144078,20896
2146081,20871
2148082,20591
2150083,21054
2152084,21979
2154087,22380
2156089,22404
2158092,22003
2160094,22504
2162095,22077
2164098,22396
2166102,22374
2168103,22025
2170104,22510
2172106,21832
2174108,21995
2176112,22053
2178115,21650
2180115,22152
2182118,21773
2184120,22046
2186122,22051
2188124,21629
2190127,22185
2192128,22073
2194132,22394
2196132,22426
2198134,21954
2200138,22538
2202139,22115
2204142,22364
2206144,22410
2208148,21962
2210151,22514
2212154,22426
2214157,22722
2216158,22762
2218159,22325
2220160,22867
2222162,22580
2224163,22662
2226165,22845
2228168,22252
2230171,22849
2232174,23553
2234176,23807
2236176,23932
2238178,23355
2240179,23986
2242180,23666
2244181,23722
2246181,23952
2248184,23376
2250188,23963
2252190,24381
2254192,24342
2256193,24628
2258194,24045
2260196,24660
2262197,24424
2264200,24343
2266202,24640
2268204,24066
2270204,24632
2272205,24784
2274208,24610
2276210,25016
2278212,24449
2280214,25022
2282214,24817
2284214,24694
2286214,25042
2288215,24476
2290215,24957
2292217,25282
2294219,24883
2296219,25429
2298223,24886
2300225,25349
2302226,25292
2304227,24905
2306229,25411
2308230,24918
2310230,25250
2312232,26333
2314234,25880
2316238,26504
2318240,25983
2320243,26378
2322247,26387
2324250,25896
2326250,26523
2328250,25979
2330252,26395
2332255,26345
2334257,25932
2336257,26519
2338259,25955
2340262,26385
2342265,26366
2344265,25912
2346266,26512
2348268,26097
2350268,26313
2352270,27490
2354272,26974
2356275,27658
2358278,27143
2360279,27378
2362281,27552
2364283,26944
2366286,27621
2368288,27183
2370288,27417
2372290,28254
2374292,27634
2376292,28311
2378293,27952
2380294,28038
2382294,28293
2384295,27670
2386298,28297
2388301,28011
2390304,28071
2392306,29354
2394308,28763
2396311,29514
2398314,29075
2400318,29117
2402320,29408
2404323,28749
2406325,29451
2408327,29092
2410331,29214
2412334,30756
2414337,30260
2416340,30934
2418341,30419
2420344,30641
2422347,30784
2424350,30114
2426353,30939
2428357,30249
2430361,30771
2432364,31393
2434367,30934
2436370,31670
2438372,30994
2440375,31473
2442377,31415
2444380,31090
2446382,31588
2448383,30882
2450385,31528
2452385,31748
2454386,31315
2456386,31971
2458388,31307
2460391,31807
2462394,31824
2464396,31295
2466398,31983
2468401,31301
2470405,31930
2472408,33466
2474410,33198
2476412,33781
2478416,33053
2480416,33701
2482419,33422
2484421,33252
2486424,33744
2488427,32989
2490427,33763
2492430,34482
2494432,34383
2496434,34843
2498436,34203
2500436,34870
2502440,34492
2504442,34465
2506443,34692
2508444,34135
2510445,34916
2512445,35580
2514446,35391
2516449,35943
2518449,35148
2520451,35876
2522453,35566
2524454,35471
2526457,35934
2528459,35196
2530459,35883
2532461,35860
2534464,35903
2536467,36312
2538467,35505
2540467,36296
2542468,35934
2544470,35856
2546471,36203
2548474,35517
2550477,36328
2552480,36426
2554480,36630
2556481,37015
2558482,36253
2560485,37061
2562486,36580
2564488,36717
2566490,37003
2568493,36277
2570493,37077
2572494,36805
2574496,37103
2576499,37313
2578499,36700
2580499,37396
2582502,36745
2584505,37144
2586508,37259
2588509,36683
2590511,37342
2592511,35796
2594511,36023
2596512,36171
2598515,35407
2600515,36273
2602517,35694
2604520,36103
2606521,36168
2608523,35579
2610526,35989
2612527,34283
2614530,34923
2616530,34696
2618530,34103
2620530,34884
2622531,34310
2624533,34596
2626535,34738
2628535,34112
2630539,34596
2632541,33201
2634543,33575
2636544,33621
2638547,33073
2640549,33721
2642551,33123
2644552,33624
2646554,33605
2648554,33087
2650556,33230
2652557,31134
2654559,31382
2656561,31456
2658563,30870
2724195,27079
2726198,27118
2728198,26588
2730200,27218
2732202,26732
2734204,27020
2736206,27107
2738207,26580
2740209,27199
2742210,26809
2744212,26901
2746212,27137
2748215,26550
2750217,27094
2752217,26088
2754218,26014
2756221,26339
2758223,25772
2760224,26414
2762224,26069
2764228,26363
2766229,26374
2768230,25813
2770231,26428
2772235,25804
2774238,25874
2776242,26054
2778246,25473
2780247,26090
2782250,25762
2784251,25820
2786254,26041
2788254,25479
2790254,26059
2792258,25834
2794261,25728
2796263,26073
2798265,25433
2800266,26070
2802268,25762
2804268,25713
2806268,26043
2808272,25502
2810275,26035
2812275,25861
2814279,25671
2816279,26089
2818281,25469
2820281,25996
2822285,25886
2824287,25669
2826289,26131
2828292,25472
2830295,25978
2832297,25156
2834301,24887
2836303,25332
2838303,24795
2840306,25323
2842307,25116
2844310,24941
2846312,25387
2848312,24797
2850315,25302
2852317,25190
2854319,24862
2856321,25369
2858322,24849
2860322,25310
2862324,25182
2864324,24817
2866324,25383
2868328,24879
2870331,25278
2872332,26347
2874336,25908
2876337,26462
2878338,25968
2880341,26287
2882344,26345
2884348,25868
2886352,26456
2888355,25904
2890358,26333
2892361,26189
2894361,25838
2896363,26471
2898364,25954
2900364,26332
2902365,26309
2904369,25841
2906370,26467
2908370,25910
2910372,26299
2912374,26000
2914375,25441
2916377,26092
2918378,25675
2920381,25935
2922381,26006
2924384,25415
2926387,26114
2928389,25717
2930390,25867
2932394,25730
2934394,25526
2936398,26140
2938398,25754
2940402,25878
2942403,26061
2944405,25454
2946408,26082
2948410,25653
2950410,25804
2952411,26391
2954415,25763
2956416,26487
2958416,26138
2960417,26137
2962420,26399
2964421,25651
2966425,26426
2968428,26155
2970431,26132
2972431,26402
2974434,25822
2976434,26461
2978437,26023
2980440,26118
2982443,26410
2984444,25792
2986446,26432
2988449,26166
2990451,26129
2992452,26442
2994452,25784
2996454,26378
2998456,26140
3000458,26111
3002459,26438
3004459,25808
3006460,26597
3008462,26143
3010463,25978
3012464,26270
3014466,25530
3016469,26010
3018471,25874
3020472,25630
3022476,26042
3024479,25495
3026479,26000
3028482,25815
3030484,25708
3032484,26429
3034486,25847
3036486,26370
3038490,26236
3040492,25917
3042492,26466
3044493,25855
3046496,26346
3048499,26306
3050499,25899
3052503,26452
3054503,25921
3056503,26347
3058506,26304
3060510,25867
3062512,26494
3064515,25877
3066516,26363
3068517,26305
3070521,25866
3072521,26351
3074521,25583
3076525,25978
3078527,25924
3080528,25535
3082528,26099
3084531,25544
3086532,25920
3088534,25964
3090534,25338
3092535,25443
3094537,25017
3096541,25187
3098541,25262
3100543,24755
3102543,25376
3104545,24962
3106545,25110
3108547,25334
3110547,24641
3112551,24650
3114552,24337
3116553,24349
3118557,24583
3120557,24070
3122560,24637
3124561,24372
3126561,24271
3128563,24619
3130566,24048
3132569,24955
3134569,24746
3136573,24665
3138574,24967
3140575,24384
3142578,24991
3144580,24801
3146580,24663
3148580,25048
3150582,24443
3152584,24953
3154585,24881
3156585,24501
3158588,25128
3160588,24449
3162590,24995
3164592,24877
3166592,24531
3168595,25188
3170595,24534
3172599,24921
3174601,24902
3176605,24554
3178606,25050
3180609,24563
3182613,24926
3184617,24846
3186618,24471
3188620,25060
3190621,24599
3192621,24943
3194623,24945
3196623,24460
3198627,25043
3200631,24884
3202633,24898
3204636,24935
3206637,24487
3208637,25078
3210637,24673
3212637,24863
3214640,24973
3216640,24397
3218641,25038
3220641,24673
3222643,24845
3224643,24982
3226646,24395
3228649,25025
3230652,24701
3232655,23293
3234658,22828
3236661,22356
3238662,22856
3240662,22526
3242665,22700
3244668,22680
3246671,22294
3248675,22906
3250676,22468
3252676,22770
3254678,22816
3256681,22278
3258682,22838
3260684,22548
3262685,22631
3264687,22818
3266691,22290
3268692,22874
3270692,22568
3272693,22613
3274697,22835
3276698,22576
3278698,23199
3280702,22979
3282705,22852
3284707,23224
3286707,22638
3288708,23189
3290711,23039
3292712,22890
3294716,23233
3296718,22262
3298719,22471
3300722,22312
3302722,22135
3304724,22486
3306728,22013
3308732,22418
3310732,22387
3312734,22040
3314737,22341
3316738,22075
3318738,22650
3320738,22788
3322738,22163
3324742,22884
3326745,22453
3328746,22722
3330748,22774
3332752,22304
3334756,22871
3336759,22499
3338759,22744
3340761,23835
3342764,23388
3344764,23969
3346767,23649
3348770,23775
3350771,23886
3352772,23362
3354774,24000
3356774,23647
3358777,23777
3360777,24587
3362777,25439
3364777,26123
3366779,25828
3368779,25757
3370782,26088
3372785,25537
3374788,26121
3376792,25914
3378794,25785
3380795,26110
3382798,27207
3384798,28239
3386800,28071
3388803,27896
3390803,28310
3392805,27655
3394809,28268
3396811,28060
3398812,27947
3400816,28318
3402816,27678
3404818,27710
3406821,27377
3408821,27267
3410821,27597
3412824,26970
3414827,27546
3416828,27377
3418830,27221
3420832,27618
3422836,26990
3424838,27554
3426840,27388
3428841,27203
3430842,27599
3432846,26982
3434849,27582
3436849,27087
3438851,25096
3440852,25379
3442852,24876
3444852,25348
3446852,25246
3448852,24909
3450856,25523
3452859,24893
3454862,25330
3456865,25270
3458868,24891
3460872,25411
3462875,24813
3464878,25377
3466880,25236
3468881,24664
3470883,25401
3472885,24870
3474885,25391
3476886,24997
3478890,22636
3480890,22786
3482893,22368
3484896,22818
3486898,22660
3488901,22396
3490901,22858
3492905,22368
3494908,22778
3496908,22576
3498909,21353
3500909,21794
3502912,21391
3504912,21645
3506916,21659
3508917,21277
3510918,21817
3512918,21443
3514922,21651
3516924,21657
3518925,20505
3520926,21024
3522927,20776
3524930,20853
3526931,20996
3528931,20515
3530935,21065
3532937,20775
3534938,20821
3536938,20920
3538942,19640
3540945,20330
3542946,20118
3544947,20054
3546949,20333
3548952,19836
3550955,20335
3552959,20133
3554961,20072
3556964,20337
3558965,20122
3560967,20715
3562967,20479
3564970,20425
3566970,20723
3568972,20166
3570973,20657
3572976,20485
3574980,20409
3576983,20660
3578983,20201
3580986,20764
3582990,20501
3584992,20276
3586993,20675
3588993,20148
3590995,20641
3592998,20497
3595000,20367
3597003,20651
3599006,20166
3601007,20753
3603010,20514
3605012,20373
3607014,20691
3609015,20182
3611018,20639
3613019,20505
3615021,20374
3617025,20800
3619025,20566
3621028,20948
3623029,20910
3625029,20675
3627031,21018
3629032,20541
3631033,20956
3633035,20879
3635037,20659
3637037,21034
3639037,20691
3641037,20925
3643040,20948
3645040,20539
3647040,21062
3649044,20787
3651047,20864
3653047,20989
3655051,20522
3657054,20960
3659055,20417
3661056,20597
3663057,20657
3665058,20160
3667058,20647
3669060,20463
3671063,20502
3673065,20657
3675068,20072
3677069,20648
3679072,20449
3681075,20455
3683077,20667
3685079,20129
3687083,20672
3689086,20416
3691086,20429
3693088,20639
3695090,20161
3697092,20651
3699093,20456
3701093,20433
3703094,20669
3705097,20120
3707099,20645
3709100,20484
3711104,20470
3713104,20679
3715106,20142
3717108,20651
3719112,20478
3721115,20414
3723115,20685
3725118,20184
3727119,20648
3729121,20493
3731123,20401
3733126,20648
3735129,20160
3737131,20904
3739132,21591
3741135,21443
3743138,21770
3745158,21259
3747159,21818
3749161,21366
3751163,21603
3753164,21732
3755166,21239
3757166,21978
3759166,22268
3761166,22219
3763166,22489
3765166,21983
3767167,22434
3769171,22324
3771171,22128
3773173,22529
3775173,22003
3777173,21447
3779173,18442
3781176,18230
3783179,18452
3785183,18067
3787184,18436
3789184,18376
3791187,18247
3793190,18496
3795190,18108
3797191,15244
3799192,11175
3801195,10970
3803198,11136
3805200,10972
3807203,11143
3809203,11114
3811206,10950
3813208,11142
3815208,11015
3817211,14723
3819214,19807
3821215,19437
3823219,19972
3825219,19740
3827221,19752
3829225,19872
3831227,19444
3833229,19984
3835229,19743
3837232,29458
3839234,46405
3841236,46047
3843239,46699
3845242,46492
3847242,46198
3849242,46855
3851245,46024
3853246,46779
3855249,46314
3857252,59249
3859254,63063
3861256,63011
3863259,63586
3865260,62955
3867262,63010
3869265,63023
3871266,62984
3873267,63071
3875269,62999
3877270,63112
3879271,63006
3881273,62991
3883276,63055
3885277,63033
3887277,63059
3889280,63067
3891282,63062
3893284,63101
3895284,63013
3897288,63065
3899288,46310
3901291,45175
3903293,45355
3905294,45664
3907295,45012
3909295,45917
3911298,45169
3913299,45313
3915302,45684
3917303,30544
3919307,7918
3921309,7237
3923312,7355
3925314,7305
3927314,7257
3929316,7357
3931317,7254
3933318,7327
3935322,7317
3937325,6272
3939328,4868
3941328,4825
3943329,4813
3945332,4843
3947336,4786
3949337,4817
3951341,4837
3953343,4827
3955343,4847
3957347,9681
3959350,13947
3961351,13988
3963352,13855
3965352,14092
3967352,13891
3969352,14008
3971355,14043
3973357,13741
3975359,14102
3977361,17129
3979363,20084
3981364,20275
3983365,19811
3985365,20318
3987367,20152
3989371,20081
3991372,20303
3993373,19817
3995374,20253
3997374,20512
3999375,20679
4001376,21038
4003376,20654
4005376,20914
4007378,20961
4009378,20589
4011382,21056
4013385,20736
4015389,21062
4017390,20753
4019390,20190
4021390,20614
4023393,20341
4025393,20555
4027393,20653
4029393,20127
4031395,20643
4033398,20445
4035398,20497
4037400,20305
4039402,19474
4041402,19993
4043402,19728
4045402,19703
4047403,19938
4049403,19467
4051406,19964
4053409,19812
4055411,19677
4057412,20137
4059413,19808
4061416,20280
4063416,20170
4065416,19924
4067416,20328
4069417,19960
4071417,20156
4073419,20204
4075419,19928
4077420,20329
4079420,20028
4081423,20194
4083425,20271
4085428,19840
4087430,20387
4089434,19972
4091437,20189
4093440,20261
4095441,19820
4097442,20541
4099445,20327
4101445,20522
4103445,20639
4105447,20193
4107448,20707
4109452,20418
4111455,20485
4113455,20669
4115458,20168
4117458,21313
4119462,21567
4121465,21523
4123468,21756
4125471,21278
4127473,21789
4129474,21511
4131477,21539
4133480,21752
4135482,21132
4137483,21774
4139483,21565
4141483,21481
4143486,21769
4145487,21258
4147489,21747
4149489,21555
4151492,21464
4153495,21790
4155498,21254
4157499,21348
4159501,20837
4161504,20696
4163506,21030
4165508,20583
4167510,20964
4169513,20916
4171516,20700
4173519,21059
4175519,20577
4177519,21788
4179519,22376
4181522,21999
4183524,22518
4185527,22169
4187530,22395
4189533,22370
4191536,22051
4193539,22509
4195541,22058
4197545,22200
4199546,22027
4201549,21707
4203552,22203
4205552,21734
4207553,22077
4209553,22028
4211555,21682
4213557,22137
4215558,21759
4217558,22227
4219559,22420
4221562,21956
4223565,22576
4225566,22131
4227570,22374
4229570,22440
4231572,21975
4233575,22540
4235575,22149
4237575,22598
4239579,22760
4241580,22316
4243581,22877
4245584,22508
4247584,22706
4249587,22801
4251591,22285
4253593,22859
4255595,22538
4257596,23460
4259599,23883
4261601,23383
4263602,23976
4265603,23682
4267604,23726
4269604,23942
4271606,23362
4273608,23934
4275610,23721
4277610,24108
4279611,24692
4281613,24080
4283614,24629
4285614,24528
4287615,24183
4289617,24697
4291620,24122
4293623,24618
4295627,24469
4297627,24510
4299630,25050
4301631,24483
4303633,25000
4305633,24899
4307633,24553
4309635,25066
4311635,24471
4313636,24927
4315636,24913
4317639,24823
4319639,25452
4321640,24926
4323642,25352
4325643,25307
4327646,24906
4329647,25432
4331650,24935
4333652,25376
4335652,25278
4337656,25577
4339658,26509
4341658,26010
4343660,26361
4345662,26418
4347663,25922
4349666,26550
4351667,26002
4353668,26394
4355671,26386
4357671,25862
4359673,26556
4361675,26110
4363675,26323
4365676,26434
4367679,25896
4369681,26517
4371684,26105
4373686,26365
4375690,26422
4377693,26644
4379697,27642
4381698,27151
4383701,27432
4385704,27518
4387706,27219
4389710,27654
4391713,27126
4393715,27520
4395716,27515
4397717,27439
4399718,28513
4401720,27845
4403720,28180
4405720,28179
4407721,27701
4409722,28331
4411725,27924
4413727,28077
4415729,28272
4417729,28415
4419733,29443
4421736,28968
4423739,29351
4425739,29396
4427740,28717
4429743,29457
4431745,28957
4433747,29317
4435748,29313
4437750,29758
4439751,31015
4441754,30343
4443757,30720
4445760,30710
4447761,30191
4449764,30912
4451768,30215
4453771,30817
4455771,30661
4457772,30860
4459776,31656
4461778,30950
4463778,31536
4465779,31335
4467779,31006
4469779,31528
4471782,30874
4473785,31542
4475786,31387
4477786,31347
4479787,31972
4481789,31245
4483791,31892
4485791,31740
4487791,31371
4489791,31974
4491792,31273
4493794,31897
4495795,31765
4497798,32815
4499800,33796
4501802,33049
4503805,33699
4505808,33436
4507809,33182
4509811,33786
4511814,33050
4513816,33695
4515816,33518
4517819,34080
4519819,34906
4521822,34161
4523825,34851
4525827,34593
4527829,34357
4529833,34876
4531834,34124
4533837,34865
4535840,34537
4537841,35188
4539845,35908
4541848,35153
4543850,35906
4545854,35482
4547854,35489
4549858,35892
4551862,35166
4553863,36009
4555866,35395
4557866,35923
4559867,36243
4561868,35580
4563870,36296
4565872,35862
4567873,35955
4569873,36255
4571875,35526
4573877,36374
4575879,35808
4577880,36570
4579882,36949
4581884,36240
4583887,37083
4585889,36464
4587890,36778
4589891,37067
4591894,36273
4593895,37083
4595896,36426
4597898,37151
4599898,37280
4601900,36604
4603902,37492
4605903,36757
4607906,37157
4609909,37207
4611912,36733
4613915,37400
4615917,36845
4617917,36405
4619917,36161
4621917,35613
4623919,36326
4625919,35661
4627920,36153
4629920,36228
4631923,35573
4633927,36344
4635928,35642
4637928,34906
4639928,34730
4641928,34255
4643931,34894
4645934,34224
4647934,34784
4649937,34686
4651940,34226
4653940,34911
4655941,34191
4657941,33799
4659941,33620
4661944,33067
4663948,33798
4665952,33093
4667953,33655
4669953,33599
4671956,33076
4673959,33783
4675960,33155
4677960,31937
4679960,31492
4681961,30986
4683963,31658
4685964,30936
4687967,31496
4689970,31397
4691970,31073
4693974,31636
4695975,30894
4697978,30638
4699980,30385
4701981,29968
4703982,30530
4705983,29840
4707985,30357
4709985,30367
4711988,29861
4713991,30520
4715993,29896
4717994,28923
4719994,28565
4721996,28069
4723998,28707
4725999,28197
4728000,28561
4730001,28610
4732005,28037
4734008,28699
4736012,28182
4738012,27352
4740012,27155
4742015,26654
4744019,27177
4746019,26892
4748019,27093
4750022,27162
4752025,26620
4754028,27265
4756029,26808
4758030,27090
4760032,27160
4762035,26612
4764039,27231
4766039,26846
4768040,27044
4770042,27147
4772043,26607
4774045,27271
4776048,26873
4778049,26409
4780053,26453
4782056,25881
4784060,26531
4786061,26125
4788062,26281
4790063,26490
4792063,25872
4794066,26520
4796067,25936
4798067,25905
4800067,26125
4802067,25476
4804071,26113
4806073,25848
4808074,25846
4810074,26107
4812075,25497
4814077,26066
4816078,25969
4818081,25789
4820082,26145
4822082,25492
4824086,25860
4826089,25936
4828093,25736
4830093,26141
4832096,25762
4834096,26079
4836096,25967
4838096,25580
4840099,26143
4842101,25643
4844104,26056
4846104,25984
4848104,25585
4850104,26146
4852107,25702
4854110,26016
4856111,26067
4858112,24898
4860116,25423
4862118,24893
4864121,25347
4866122,25260
4868126,24937
4870130,25432
4872130,24937
4874131,25295
4876132,25264
4878134,24931
4880135,25387
4882137,24985
4884140,25315
4886141,25337
4888142,24811
4890143,25422
4892146,25026
4894149,25212
4896152,25343
4898152,25569
4900152,26531
4902152,26114
4904156,26258
4906157,26463
4908159,25828
4910161,26515
4912162,26063
4914162,26219
4916163,26509
4918164,25840
4920167,26419
4922169,26193
4924170,26193
4926173,26459
4928173,25848
4930175,26492
4932177,26181
4934177,26201
4936177,26514
4938180,25572
4940180,26143
4942182,25916
4944182,25732
4946185,26093
4948187,25503
4950191,26141
4952191,25864
4954191,25758
4956194,26139
4958196,25479
4960200,26117
4962201,25904
4964204,25726
4966208,26061
4968211,25499
4970214,26149
4972215,25834
4974216,25830
4976216,26137
4978219,25814
4980220,26444
4982223,26161
4984226,26155
4986227,26480
4988228,25883
4990230,26426
4992234,26163
4994238,26183
4996242,26480
4998245,25830
5000245,26508
5002246,26197
5004250,26173
5006253,26492
5008254,25862
5010257,26452
5012260,26245
5014261,26131
5016264,26480
5018266,25852
5020269,26510
5022270,26049
5024273,26191
5026274,26497
5028276,25812
5030276,26464
5032279,26329
5034282,26098
5036282,26530
5038285,25579
5040286,26289
5042289,25892
5044292,25748
5046294,26145
5048295,25537
5050298,26148
5052301,25858
5054303,25838
5056304,25984
5058307,25816
5060308,26484
5062312,26231
5064314,26170
5066314,26480
5068314,25809
5070315,26404
5072315,26313
5074316,25960
5076319,26484
5078321,25893
5080324,26455
5082325,26313
5084329,26024
5086332,26496
5088334,25862
5090336,26452
5092337,26322
5094340,25960
5096342,26496
5098345,25587
5100346,26057
5102348,25968
5104349,25616
5106352,26114
5108355,25587
5110358,26090
5112360,26016
5114360,25587
5116361,26151
5118362,24977
5120366,25279
5122367,25268
5124371,24894
5126372,25486
5128373,24911
5130373,25302
5132373,25286
5134377,24845
5136377,25440
5138379,24300
5140381,24559
5142384,24572
5144384,24070
5146386,24685
5148387,24367
5150387,24473
5152391,24639
5154394,24064
5156397,24699
5158398,24689
5160400,24801
5162403,25035
5164403,24423
5166403,25030
5168404,24771
5170407,24761
5172409,25018
5174410,24408
5176410,25036
5178414,24793
5180417,24758
5182417,25037
5184420,24423
5186422,25028
5188425,24809
5190426,24725
5192426,25018
5194426,24381
5196429,24997
5198431,24829
5200431,24647
5202431,25037
5204432,24451
5206433,24965
5208435,24827
5210437,24638
5212437,25084
5214437,24548
5216439,24932
5218440,24894
5220444,24508
5222446,25067
5224449,24564
5226452,24930
5228456,24887
5230459,24591
5232461,25040
5234461,24485
5236461,24939
5238461,24941
5240465,24448
5242467,25112
5244469,24598
5246472,24909
5248474,24918
5250476,24475
5252478,25070
5254480,24652
5256481,24911
5258484,24804
5260485,22650
5262486,22860
5264488,22470
5266489,22719
5268492,22778
5270495,22315
5272497,22886
5274498,22468
5276500,22726
5278501,22790
5280503,22302
5282503,22884
5284506,22512
5286508,22702
5288511,22771
5290513,22324
5292513,22852
5294515,22474
5296516,22707
5298519,22754
5300520,22280
5302521,22890
5304521,22854
5306523,22999
5308525,23181
5310527,22654
5312530,23249
5314530,22984
5316531,22952
5318532,23330
5320532,22702
5322533,23094
5324533,23105
5326536,22446
5328540,22540
5330541,21993
5332544,22471
5334548,22333
5336549,22164
5338550,22512
5340552,21981
5342556,22369
5344556,22337
5346556,22063
5348557,22635
5350558,22417
5352558,22708
5354560,22731
5356560,22283
5358562,22906
5360565,22449
5362565,22704
5364565,22770
5366568,22316
5368570,22832
5370572,22859
5372573,23797
5374573,23901
5376574,23472
5378578,23957
5380579,23616
5382581,23833
5384583,23901
5386583,23374
5388583,23984
5390584,23679
5392588,23775
5394590,26002
5396591,25506
5398592,26151
5400592,25892
5402596,25870
5404598,26102
5406601,25506
5408601,26153
5410604,25868
5412607,25815
5414607,26107
5416611,27558
5418612,28352
5420613,28068
5422615,27900
5424617,28316
5426620,27666
5428622,28299
5430622,28049
5432625,27919
5434627,28364
5436627,27671
5438628,27522
5440631,27365
5442631,27151
5444634,27622
5446636,27015
5448636,27555
5450638,27412
5452639,27138
5454639,27632
5456641,27003
5458641,27584
5460642,25498
5462642,24865
5464644,25364
5466647,24851
5468649,25318
5470652,25182
5472653,24930
5474654,25417
5476656,24865
5478658,25335
5480661,25276
5482664,24877
5484666,25445
5486666,24909
5488670,25358
5490670,25331
5492674,24875
5494678,25443
5496681,24865
5498681,25339
5500681,25286
5502683,24783
5504686,23306
5506687,22424
5508687,22764
5510688,22762
5512689,22328
5514689,22882
5516691,22474
5518692,22702
5520692,22814
5522695,22388
5524696,22868
5526697,22520
5528698,22694
5530701,22788
5532704,22296
5534704,22876
5536705,22538
5538706,22620
5540708,22823
5542710,21301
5544710,21754
5546712,21540
5548715,21560
5550718,21756
5552721,21229
5554725,21768
5556726,21474
5558729,21625
5560731,21736
5562733,20562
5564735,21022
5566735,20713
5568736,20811
5570737,21046
5572737,20465
5574740,21028
5576742,20783
5578744,20875
5580745,20938
5582748,19837
5584750,20331
5586753,20062
5588756,20134
5590759,20273
5592761,19804
5594763,20335
5596765,20052
5598768,20163
5600768,20347
5602771,20144
5604773,20699
5606776,20433
5608777,20539
5610777,20649
5612780,20132
5614783,20656
5616784,20447
5618787,20465
5620790,20659
5622793,20167
5624794,20679
5626797,20481
5628801,20233
5630804,20651
5632806,20181
5634807,20664
5636811,20485
5638813,20437
5640813,20707
5642817,20156
5644820,20662
5646823,20441
5648823,20377
5650823,20693
5652823,20181
5654827,20643
5656827,20459
5658827,20355
5660830,20720
5662831,20546
5664832,20968
5666833,20943
5668836,20681
5670839,21032
5672840,20622
5674841,20942
5676841,20929
5678844,20556
5680844,21032
5682844,20659
5684846,20916
5686849,20952
5688851,20538
5690851,21048
5692854,20717
5694855,20891
5696855,20989
5698859,20493
5700863,21013
5702866,20387
5704869,20525
5706871,20607
5708874,20156
5710878,20678
5712880,20377
5714881,20555
5716882,20612
5718886,20248
5720886,20673
5722886,20405
5724889,20505
5726892,20629
5728893,20091
5730893,20698
5732895,20412
5734897,20497
5736897,20691
5738900,20180
5740900,20683
5742900,20463
5744902,20410
5746903,20688
5748905,20144
5750906,20664
5752906,20513
5754909,20435
5756911,20538
5758911,20251
5760911,20676
5762915,20513
5764918,20361
5766920,20670
5768923,20186
5770926,20635
5772926,20643
5774927,20338
5776927,20713
5778927,20249
5780928,20863
5782931,21638
5784934,21327
5786936,21779
5788937,21392
5790939,21627
5792941,21656
5794941,21337
5796945,21798
5798947,21382
5800950,21868
5802951,22390
5804951,22031
5806951,22514
5808953,22147
5810953,22376
5812956,22428
5814957,21962
5816957,22520
5818960,22140
5820962,21461
5822963,18520
5824963,18060
5826966,18532
5828969,18218
5830971,18396
5832972,18430
5834974,18041
5836974,18526
5838974,18262
5840974,16735
5842977,11282
5844979,10913
5846979,11174
5848983,11028
5850983,11054
5852985,11094
5854987,10882
5856987,11158
5858989,11066
5860991,12568
5862992,19776
5864993,19593
5866996,19893
5868998,19870
5870999,19494
5873003,19990
5875004,19624
5877008,19965
5879010,19818
5881012,24243
5883013,46081
5885016,46406
5887017,46256
5889019,46760
5891019,45990
5893022,46764
5895023,46227
5897026,46474
5899026,46683
5901026,58435
5903026,62994
5905030,62987
5907031,63094
5909034,63008
5911036,63104
5913038,63067
5915038,62988
5917039,63067
5919039,63133
5921040,63096
5923041,62962
5925042,63095
5927042,63063
5929044,63051
5931047,63089
5933048,63015
5935051,63099
5937053,63136
5939055,63003
5941055,63032
5943059,46193
5945059,45742
5947059,44956
5949061,45779
5951063,45126
5953064,45327
5955066,45301
5957069,44940
5959070,45800
5961071,31733
5963073,8049
5965076,7317
5967077,7289
5969078,7367
5971082,7232
5973083,7329
5975086,7320
5977089,7246
5979091,7323
5981091,6368
5983094,4887
5985094,4843
5987095,4802
5989099,4861
5991101,4804
5993102,4837
5995105,4849
5997105,4807
5999107,4820
6001110,7885
6003113,13703
6005114,14096
6007115,13873
6009117,14037
6011120,14035
6013124,13795
6015127,14130
6017131,13860
6019131,14011
6021135,16022
6023137,19692
6025211,20130
6027215,20060
6029217,20323
6031220,19780
6033221,20325
6035225,20114
6037229,20117
6039233,20285
6041236,20064
6043239,21020
6045239,20860
6047240,20789
6049242,21021
6051244,20491
6053246,21014
6055247,20842
6057249,20754
6059249,21072
6061252,20367
6063255,20703
6065256,20539
6067257,20322
6069257,20689
6071258,20327
6073262,20657
6075263,20527
6077267,20306
6079270,20697
6081272,19884
6083273,19929
6085275,19825
6087276,19618
6089279,19990
6091281,19531
6093284,19892
6095284,19875
6097284,19502
6099288,19980
6101290,19857
6103294,20225
6105297,20248
6107301,19944
6109304,20341
6111306,19904
6113310,20271
6115314,20154
6117315,20013
6119315,20349
6121316,19989
6123316,20245
6125317,20249
6127319,19870
6129319,20341
6131321,19993
6133324,20217
6135324,20249
6137324,19827
6139324,20367
6141324,20213
6143324,20452
6145325,20644
6147325,20174
6149326,20667
6151328,20478
6153331,20423
6155332,20731
6157333,20164
6159336,20564
6161339,20954
6163341,21477
6165341,21799
6167345,21237
6169346,21743
6171349,21587
6173352,21497
6175355,21763
6177356,21240
6179357,21761
6181360,21549
6183363,21493
6185366,21804
6187368,21238
6189370,21776
6191372,21593
6193373,21514
6195376,21780
6197378,21261
6199379,21750
6201380,21216
6203380,20759
6205380,21050
6207380,20587
6209382,20998
6211386,20891
6213390,20703
6215391,20984
6217391,20651
6219393,20971
6221394,21685
6223398,22045
6225402,22504
6227402,22027
6229402,22332
6231403,22417
6233406,21967
6235408,22489
6237410,22133
6239413,22421
6241417,22181
6243419,21644
6245419,22147
6247420,21873
6249423,21965
6251424,22099
6253425,21582
6255425,22133
6257429,21860
6259430,21971
6261430,22338
6263431,21957
6265432,22476
6267433,22293
6269435,22171
6271435,22437
6273439,21931
6275439,22475
6277442,22293
6279442,22203
6281444,22717
6283447,22316
6285447,22792
6287450,22619
6289454,22482
6291456,22835
6293456,22330
6295456,22840
6297456,22711
6299458,22409
6301461,23592
6303464,23469
6305465,23933
6307465,23845
6309466,23444
6311469,23980
6313469,23536
6315470,23874
6317472,23846
6319473,23457
6321476,24426
6323479,24248
6325482,24564
6327484,24613
6329487,24154
6331488,24695
6333491,24184
6335492,24543
6337493,24557
6339494,24194
6341498,24931
6343500,24595
6345502,24933
6347503,24961
6349505,24451
6351508,25040
6353509,24608
6355512,24918
6357512,24945
6359516,24498
6361519,25283
6363522,24975
6365525,25275
6367525,25339
6369528,24830
6371530,25456
6373530,24942
6375531,25296
6377533,25320
6379534,24851
6381538,26103
6383540,26097
6385542,26382
6387542,26423
6389546,25882
6391547,26522
6393549,26026
6395552,26354
6397553,26391
6399553,25916
6401555,26518
6403558,26030
6405561,26361
6407562,26393
6409562,25909
6411565,26560
6413569,26045
6415572,26383
6417573,26397
6419574,25896
6421577,27350
6423579,27087
6425579,27483
6427580,27558
6429584,26996
6431585,27676
6433587,27174
6435587,27402
6437590,27510
6439594,27012
6441594,28154
6443597,27867
6445598,28138
6447599,28289
6449603,27687
6451605,28332
6453607,27856
6455609,28169
6457609,28235
6459609,27656
6461612,29149
6463614,29038
6465614,29210
6467616,29338
6469616,28759
6471619,29453
6473622,29053
6475625,29195
6477628,29365
6479631,28754
6481631,30458
6483631,30488
6485633,30628
6487633,30807
6489636,30343
6491639,30921
6493641,30389
6495644,30612
6497644,30772
6499648,30208
6501651,31323
6503652,31113
6505655,31433
6507658,31493
6509662,31026
6511663,31622
6513665,31044
6515669,31520
6517673,31436
6519676,31014
6521677,31878
6523677,31302
6525680,31886
6527682,31702
6529684,31387
6531687,31984
6533690,31235
6535693,31891
6537695,31698
6539695,31459
6541695,33290
6543697,32963
6545697,33367
6547700,33466
6549702,33230
6551704,33748
6553705,33067
6555705,33731
6557705,33508
6559707,33198
6561708,34596
6563710,34099
6565713,34840
6567717,34618
6569718,34324
6571720,34886
6573723,34118
6575723,34831
6577726,34542
6579730,34367
6581732,35633
6583735,35170
6585737,35904
6587739,35602
6589740,35496
6591740,35912
6593740,35146
6595743,35929
6597745,35537
6599748,35582
6601750,36183
6603752,35533
6605753,36333
6607755,35764
6609755,35958
6611758,36344
6613762,35548
6615764,36356
6617765,35776
6619769,35981
6621772,36761
6623775,36333
6625775,37070
6627778,36484
6629779,36877
6631782,36933
6633783,36360
6635783,37087
6637783,36426
6639783,36733
6641787,37184
6643788,36647
6645789,37396
6647790,36791
6649792,37227
6651792,37263
6653793,36678
6655797,37253
6657797,36734
6659798,37208
6661801,36414
6663804,35651
6665804,36257
6667804,35670
6669805,36111
6671807,36164
6673809,35624
6675810,36368
6677813,35626
6679814,36165
6681815,35044
6683817,34220
6685820,34907
6687820,34188
6689822,34789
6691825,34695
6693825,34222
6695829,34878
6697830,34176
6699831,34784
6701834,33787
6703837,33179
6705840,33803
6707841,33058
6709844,33654
6711845,33504
6713845,33179
6715846,33783
6717848,33058
6719850,33698
6721853,31877
6723856,31088
6725856,31533
6727856,30936
6729858,31523
6731859,31532
6733859,31014
6735863,31633
6737864,30920
6739866,31546
6741867,30490
6743868,29958
6745871,30588
6747874,29814
6749876,30359
6751879,30259
6753879,29936
6755880,30534
6757883,29818
6759886,30437
6761888,28761
6763892,28200
6765895,28680
6767897,28058
6769899,28669
6771900,28441
6773902,28137
6775906,28677
6777909,28024
6779913,28649
6781916,27207
6783920,26876
6785924,27092
6787925,26421
6789925,27218
6791928,26984
6793931,26860
6795931,27213
6797932,26632
6799934,27191
6801934,26989
6803937,26841
6805938,27247
6807939,26620
6809940,27207
6811942,27024
6813945,26846
6815948,27244
6817951,26633
6819951,27245
6821955,26378
6823959,26113
6825959,26502
6827961,26141
6829962,26458
6831962,26231
6833966,26145
6835968,26492
6837969,25830
6839970,26504
6841973,26000
6843976,25763
6845979,26137
6847980,25535
6849983,26101
6851985,25923
6853985,25769
6855985,26093
6857988,25526
6859991,26061
6861995,25940
6863999,25713
6866000,26142
6868004,25511
6870004,26074
6872006,25936
6874007,25736
6876010,26154
6878014,25559
6880015,26085
6882019,25880
6884022,25740
6886023,26134
6888023,25547
6890023,26115
6892026,25952
6894028,25658
6896029,26182
6898031,25578
6900033,26063
6902034,25377
6904037,24910
6906040,25408
6908042,24867
6910042,25361
6912043,25274
6914043,24852
6916044,25447
6918047,24970
6920048,25286
6922050,25298
6924050,24817
6926054,25441
6928057,24994
6930059,25212
6932060,25284
6934061,24849
6936061,25409
6938061,24943
6940063,25302
6942064,26285
6944065,25852
6946065,26544
6948067,26055
6950068,26336
6952071,26415
6954075,25844
6956077,26517
6958078,26059
6960082,26349
6962084,26422
6964086,25893
6966088,26498
6968089,26049
6970089,26466
6972089,26410
6974091,25916
6976094,26522
6978098,26014
6980101,26402
6982101,26073
6984105,25518
6986107,26121
6988109,25682
6990109,26010
6992111,26026
6994112,25549
6996115,26174
6998119,25716
7000119,26015
7002122,26027
7004125,25531
7006126,26089
7008127,25696
7010127,25995
7012128,26065
7014130,25562
7016134,26157
7018134,25683
7020135,25940
7022137,26374
7024140,25872
7026144,26522
7028144,26066
7030144,26279
7032148,26394
7034152,25890
7036153,26530
7038154,26030
7040156,26382
7042158,26382
7044160,25877
7046163,26538
7048163,26109
7050167,26361
7052171,26398
7054173,25925
7056176,26777
7058176,26027
7060179,26385
7062181,26392
7064184,25941
7066185,26530
7068186,25951
7070187,26333
7072188,26354
7074190,25932
7076192,26532
7078194,25934
7080198,26408
7082198,26060
7084201,25583
7086204,25948
7088205,25613
7090205,25989
7092206,26028
7094208,25461
7096210,26184
7098210,25714
7100214,26004
7102215,26397
7104216,25892
7106219,26455
7108222,26046
7110223,26353
7112226,26422
7114227,25867
7116229,26570
7118233,26044
7120236,26391
7122238,26309
7124240,25956
7126241,26536
7128245,25945
7130248,26400
7132249,26296
7134249,25894
7136250,26516
7138251,25993
7140253,26388
7142257,26058
7144259,25657
7146262,26141
7148263,25646
7150266,26082
7152266,26021
7154269,25651
7156273,26137
7158274,25584
7160274,26031
7162274,25371
7164277,24893
7166277,25351
7168277,24913
7170280,25326
7172283,25283
7174285,24911
7176288,25440
7178288,24901
7180289,25372
7182292,24569
7184295,24174
7186296,24665
7188296,24145
7190300,24587
7192304,24452
7194306,24174
7196307,24696
7198308,24159
7200312,24544
7202314,24857
7204318,24549
7206320,25090
7208322,24534
7210325,24973
7212325,24876
7214328,24569
7216329,25131
7218330,24477
7220332,24961
7222333,24898
7224333,24433
7226336,25123
7228338,24485
7230342,25013
7232343,24854
7234345,24581
7236349,25041
7238350,24477
7240353,24985
7242353,24878
7244353,24575
7246355,25042
7248356,24545
7250356,24945
7252358,24899
7254361,24534
7256365,25046
7258368,24475
7260368,24977
7262368,24914
7264370,24520
7266374,25050
7268374,24555
7270375,24906
7272377,24921
7274377,24544
7276377,25022
7278378,24635
7280378,24904
7282378,24919
7284382,24188
7286383,25041
7288383,24595
7290387,24917
7292389,25102
7294392,24470
7296396,25074
7298397,24555
7300397,24925
7302397,23498
7304398,22420
7306400,22851
7308403,22309
7310407,22777
7312410,22718
7314413,22408
7316415,22902
7318419,22340
7320419,22767
7322421,22726
7324423,22430
7326426,22834
7328427,22416
7330429,22774
7332429,22724
7334430,22409
7336431,22859
7338433,22408
7340437,22740
7342440,22743
7344441,22675
7346442,23217
7348444,22794
7350445,23116
7352449,23129
7354453,22722
7356453,23249
7358455,22804
7360457,23123
7362459,23099
7364460,22193
7366460,22530
7368462,22133
7370462,22316
7372465,22465
7374465,21898
7376469,22517
7378469,22227
7380469,22316
7382473,22445
7384477,22003
7386478,22824
7388480,22572
7390480,22644
7392483,22803
7394485,22272
7396489,22854
7398491,22538
7400491,22634
7402491,22845
7404493,22276
7406495,23865
7408495,23626
7410498,23755
7412498,23931
7414501,23384
7416502,23938
7418503,23777
7420503,23675
7422504,23956
7424505,23365
7426506,25512
7428508,25888
7430508,25627
7432510,26113
7434513,25494
7436514,26085
7438514,25941
7440518,25724
7442520,26147
7444524,25504
7446524,26608
7448525,28072
7450525,27819
7452528,28310
7454532,27700
7456532,28280
7458536,28081
7460538,27839
7462538,28330
7464539,27718
7466543,28254
7468544,27458
7470545,27372
7472548,27616
7474551,26986
7476552,27610
7478553,27393
7480557,27204
7482557,27612
7484558,26977
7486559,27580
7488559,25964
7490563,25129
7492564,25409
7494565,24665
7496565,25355
7498569,25215
7500569,25230
7502569,25399
7504572,24829
7506575,25387
7508576,25211
7510577,25036
7512579,25449
7514582,24810
7516583,25387
7518586,25377
7520588,25010
7522591,25433
7524592,24827
7526593,25378
7528594,25233
7530597,22736
7532601,22844
7534603,22305
7536605,22811
7538605,22668
7540606,22453
7542609,22842
7544612,22356
7546612,22764
7548614,22683
7550615,21734
7552617,21806
7554617,21381
7556619,21680
7558623,21642
7560625,21349
7562627,21769
7564629,21354
7566633,21541
7568634,21597
7570638,21255
7572640,21084
7574641,20637
7576645,20938
7578648,20910
7580648,20519
7582649,21030
7584651,20649
7586653,20940
7588654,20933
7590655,20538
7592657,20398
7594659,19987
7596660,20233
7598660,20261
7600662,19815
7602663,20299
7604665,20032
7606665,20215
7608666,20250
7610667,19833
7612669,20552
7614671,20463
7616673,20443
7618675,20653
7620676,20223
7622676,20655
7624678,20384
7626678,20423
7628680,20675
7630680,20144
7632680,20681
7634681,20543
7636682,20359
7638682,20661
7640685,20251
7642686,20673
7644687,20521
7646688,20293
7648690,20685
7650690,20258
7652690,20613
7654692,20556
7656694,20325
7658698,20654
7667471,20472
7669473,20231
7671475,20601
7673476,20241
7675477,20579
7677477,20556
7679478,20290
7681478,20683
7683481,20338
7685482,20571
7687484,20767
7689486,20543
7691490,21031
7693492,20647
7695492,20932
7697493,20950
7699496,20510
7701499,21036
7703499,20693
7705500,20923
7707501,20929
7709501,20531
7711501,21028
7713502,20735
7715504,20744
7717505,21017
7719509,20489
7721511,21058
7723513,20748
7725513,20899
7727516,20801
7729517,20133
7731518,20705
7733520,20440
7735521,20485
7737522,20655
7739525,20128
7741526,20655
7743527,20429
7745528,20447
7747528,20711
7749529,20150
7751529,20663
7753531,20493
7755534,20419
7757537,20631
7759541,20142
7761543,20635
7763543,20468
7765543,20424
7767547,20692
7769550,20186
7771551,20667
7773552,20487
7775554,20405
7777557,20656
7779558,20152
7781562,20677
7783565,20492
7785567,20416
7787568,20663
7789568,20129
7791569,20700
7793572,20469
7795573,20469
7797576,20637
7799576,20153
7801578,20654
7803581,20431
7805582,20457
7807583,21395
7809584,21269
7811586,21743
7813588,21640
7815591,21439
7817592,21777
7819592,21284
7821596,21754
7823598,21612
7825598,21383
7827599,22234
7829602,22020
7831606,22439
7833607,22400
7835611,22035
7837611,22520
7839614,22064
7841614,22448
7843614,22362
7845617,22047
7847617,20009
7849619,18158
7851622,18458
7853624,18414
7855624,18176
7857625,18516
7859628,18229
7861628,18342
7863631,18444
7865635,18107
7867637,13843
7869641,10960
7871643,11119
7873643,11119
7875646,10992
7877646,11160
7879649,10975
7881650,11092
7883652,11123
7885655,10954
7887657,16572
7889660,19543
7891662,19787
7893663,19873
7895663,19436
7897664,19930
7899665,19760
7901669,19743
7903669,19938
7905670,19464
7907672,35819
7909675,46396
7911675,46104
7913678,46824
7915681,46002
7917682,46776
7919685,46387
7921688,46244
7923691,46680
7925692,45993
7927692,62972
7929694,63103
7931698,62975
7933700,63033
7935703,63086
7937704,62903
7939705,63010
7941708,62955
7943710,63008
7945711,62946
7947715,63063
7949715,62666
7951717,63083
7953717,63036
7955719,63063
7957719,63117
7959720,63024
7961722,63053
7963722,63061
7965722,63063
7967725,58240
7969725,46052
7971725,44985
7973726,45797
7975728,45240
7977728,45222
7979728,45654
7981731,44921
7983734,45784
7985737,45159
7987738,18725
7989738,7535
7991741,7298
7993744,7330
7995744,7241
7997746,7337
7999746,7339
8001748,7198
8003750,7317
8005752,7276
8007754,5505
8009757,4881
8011760,4768
8013763,4841
8015763,4817
8017766,4836
8019768,4875
8021768,4795
8023770,4859
8025773,4813
8027777,10978
8029779,14013
8031782,13887
8033784,14029
8035785,14086
8037786,13739
8039788,14087
8041789,13959
8043791,13985
8045792,14090
8047793,17871
8049795,20226
8051795,20177
8053797,19961
8055799,20369
8057800,19948
8059804,20253
8061807,20194
8063810,19904
8065812,20325
8067813,20418
8069813,21077
8071813,20917
8073815,20545
8075818,21055
8077820,20687
8079822,20938
8081825,20938
8083828,20565
8085830,21050
8087834,20402
8089838,20632
8091841,20553
8093844,20306
8095847,20747
8097849,20282
8099851,20587
8101851,20569
8103854,20213
8105857,20705
8107857,19752
8109857,19917
8111858,19920
8113860,19516
8115863,19960
8117863,19675
8119866,19803
8121867,19906
8123869,19448
8125870,19995
8127871,19988
8129871,20187
8131874,20257
8133878,19791
8135878,20325
8137879,20088
8139881,20211
8141881,20319
8143882,19823
8145884,20358
8147886,20092
8149890,20119
8151890,20301
8153890,19809
8155892,20234
8157892,20119
8159895,20057
8161897,20305
8163899,19800
8165903,20287
8167904,20389
8169905,20394
8171907,20724
8173909,20194
8175909,20624
8177910,20517
8179910,20298
8181913,20696
8183916,20210
8185920,20649
8187921,21348
8189924,21376
8191927,21814
8193928,21294
8195928,21768
8197928,21699
8199931,21287
8201931,21803
8203934,21410
8205934,21699
8207936,21663
8209938,21321
8211940,21770
8213941,21390
8215945,21655
8217945,21690
8219946,21269
8221946,21798
8223948,21473
8225950,21583
8227953,21108
8229954,20499
8231954,21033
8233954,20881
8235957,20819
8237960,20994
8239964,20463
8241965,21044
8243965,20779
8245967,20816
8247967,22071
8249970,21923
8251973,22490
8253973,22301
8255976,22183
8257977,22574
8259977,21947
8261979,22496
8263981,22300
8265981,22131
8267982,22205
8269983,21628
8271985,22108
8273987,21961
8275990,21840
8277990,22137
8279993,21602
8281997,22089
8284000,21937
8286003,21882
8288006,22410
8290009,21935
8292012,22493
8294014,22259
8296015,22250
8298015,22465
8300016,21932
8302016,22473
8304020,22199
8306020,22212
8308020,22754
8310024,22321
8312026,22808
8314029,22601
8316030,22581
8318034,22823
8320034,22282
8322037,22858
8324039,22619
8326039,22658
8328042,23772
8330045,23381
8332045,23975
8334048,23718
8336049,23677
8338051,23960
8340051,23368
8342051,23945
8344053,23755
8346057,23685
8348061,24496
8350061,24050
8352065,24671
8354065,24383
8356066,24331
8358066,24647
8360069,24038
8362070,24655
8364072,24421
8366075,24358
8368076,24975
8370078,24429
8372078,24969
8374081,24782
8376082,24757
8378082,24997
8380084,24409
8382087,25035
8384089,24790
8386091,24813
8388094,25318
8390096,24763
8392096,25451
8394098,25088
8396099,25203
8398102,25381
8400105,24801
8402107,25459
8404109,25076
8406109,25112
8408113,26129
8410113,25846
8412113,26504
8414113,26265
8416113,26192
8418114,26494
8420115,25862
8422118,26478
8424120,26185
8426120,26105
8428124,26524
8430128,25862
8432130,26503
8434133,26224
8436134,26157
8438136,26484
8440138,25810
8442138,26520
8444140,26187
8446140,26147
8448142,27427
8450144,26976
8452148,27618
8454149,27359
8456152,27383
8458153,27584
8460156,26918
8462159,27619
8464159,27322
8466160,27287
8468160,28194
8470161,27658
8472165,28296
8474169,28013
8476173,28075
8478174,28297
8480175,27632
8482175,28297
8484178,27969
8486179,27998
8488180,29180
8490183,28733
8492184,29437
8494184,29025
8496186,29194
8498189,29386
8500189,28787
8502189,29421
8504192,29057
8506193,29087
8508195,30722
8510197,30162
8512197,30868
8514197,30479
8516201,30546
8518203,30845
8520207,30169
8522210,30856
8524212,30479
8526213,30548
8528214,31777
8530215,30881
8532218,31620
8534219,31215
8536221,31317
8538223,31552
8540227,30888
8542228,31610
8544230,31150
8546231,31345
8548232,31908
8550235,31122
8552238,31972
8554241,31487
8556241,31698
8558243,31824
8560245,31228
8562248,31987
8564250,31432
8566253,31698
8568253,33485
8570257,33039
8572259,33795
8574262,33223
8576263,33540
8578263,33671
8580263,33051
8582266,33804
8584269,33179
8586273,33601
8588273,34608
8590273,34224
8592276,34896
8594279,34221
8596282,34740
8598282,34702
8600285,34204
8602286,34938
8604289,34168
8606290,34803
8608292,35609
8610292,35264
8612292,35974
8614293,35242
8616293,35824
8618295,35624
8620298,35325
8622298,36022
8624299,35184
8626301,35916
8628305,35938
8630305,35749
8632305,36320
8634309,35537
8636312,36292
8638315,35976
8640319,36171
8642322,36314
8644323,35556
8646325,36300
8648325,36574
8650326,36363
8652329,37046
8654332,36299
8656332,37045
8658333,36637
8660333,36522
8662335,37021
8664335,36273
8666335,37031
8668337,36877
8670337,37003
8672340,37183
8674343,36606
8676347,37445
8678348,36838
8680349,37124
8682350,37203
8684352,36666
8686352,37438
8688354,35879
8690358,36153
8692358,36185
8694361,35635
8696361,36352
8698364,35647
8700367,36213
8702368,36132
8704368,35636
8706370,36329
8708373,34317
8710374,34783
8712376,34676
8714379,34255
8716383,34897
8718386,34106
8720386,34795
8722390,34555
8724390,34283
8726392,34880
8728394,33157
8730395,33713
8732399,33399
8734402,33374
8736406,33735
8738408,32943
8740408,33744
8742411,33358
8744413,33434
8746415,33691
8748415,31137
8750418,31633
8752419,31175
8754420,31220
8756422,31569
8758423,30911
8760424,31601
8762424,31188
8764427,31255
8766427,31530
8768428,29849
8770431,30713
8772431,30161
8774434,30243
8776434,30484
8778434,29802
8780434,30488
8782437,30129
8784441,30213
8786444,30492
8788445,28193
8790446,28698
8792446,28362
8794449,28459
8796449,28603
8798451,27992
8800454,28710
8802458,28280
8804459,28443
8806459,28621
8808461,26730
8810465,27261
8812469,26866
8814471,27045
8816473,27166
8818476,26591
8820476,27260
8822478,26848
8824480,26988
8826483,27185
8828485,26616
8830488,27243
8832490,26824
8834490,27054
8836491,27179
8838491,26600
8840494,27266
8842498,26863
8844499,26997
8846502,27179
8848502,25913
8850502,26522
8852505,26123
8854507,26294
8856507,26460
8858509,25812
8860512,26518
8862515,26143
8864519,26309
8866522,26474
8868523,25510
8870523,26123
8872527,25820
8874529,25864
8876530,26067
8878531,25476
8880531,26123
8882535,25792
8884536,25880
8886537,26127
8888541,25513
8890541,26093
8892541,25896
8894543,25767
8896544,26145
8898544,25515
8900548,26085
8902550,25917
8904550,25766
8906550,26181
8908551,25596
8910555,26126
8912556,26041
8914559,25721
8916562,26131
8918565,25507
8920565,25972
8922568,25934
8924572,25637
8926573,26113
8928574,24875
8930575,25370
8932577,25254
8934577,24869
8936578,25453
8938579,24975
8940583,25336
8942586,25314
8944589,24919
8946590,25430
8948593,24868
8950597,25405
8952599,25266
8954602,24905
8956603,25477
8958604,24924
8960608,25159
8962609,25311
8964610,24925
8966613,25457
8968613,25895
8970617,26406
8972618,26347
8974620,25932
8976624,26514
8978627,25996
8980630,26390
8982632,26382
8984634,25917
8986637,26518
8988640,25886
8990641,26416
8992642,26198
8994644,25948
8996645,26504
8998649,25884
9000649,26410
9002650,26342
9004651,25944
9006651,26504
9008653,25616
9010656,26000
9012657,25956
9014658,25427
9016660,26137
9018660,25725
9020662,25988
9022664,26050
9024665,25535
9026667,26175
9028671,25698
9030671,25964
9032672,26055
9034674,25516
9036676,26141
9038677,25665
9040678,25969
9042678,26028
9044680,25523
9046680,26141
9048683,26146
9050686,26229
9052688,26446
9054689,25861
9056689,26502
9058689,26141
9060690,26297
9062691,26466
9064692,25621
9066696,26505
9068697,26201
9070701,26215
9072702,26504
9074702,25836
9076702,26474
9078702,26218
9080702,26018
9082702,26442
9084704,25920
9086704,26442
9088707,26335
9090709,25997
9092712,26518
9094713,25914
9096713,26418
9098714,26333
9100717,25782
9102719,26536
9104721,25916
9106722,26433
9108726,26011
9110727,25609
9112730,26151
9114733,25600
9116734,26209
9118735,26002
9120736,25595
9122736,26149
9124739,25716
9126740,25984
9128740,26408
9130741,25878
9132741,26598
9134744,26076
9136745,26301
9138745,26446
9140745,25846
9142747,26508
9144749,26178
9146751,26237
9148753,26469
9150755,25820
9152757,26494
9154759,26167
9156761,26185
9158764,26476
9160766,25838
9162768,26496
9164769,26189
9166771,26175
9168772,26126
9170772,25492
9172776,26136
9174779,25867
9176783,25790
9178784,26183
9180786,25388
9182790,26117
9184792,25901
9186794,25778
9188797,25463
9190801,24801
9192801,25395
9194801,25186
9196802,25036
9198804,25412
9200807,24832
9202810,25314
9204814,25198
9206814,25075
9208817,24700
9210817,24138
9212820,24599
9214822,24548
9216825,24298
9218825,24661
9220829,24148
9222830,24605
9224832,24505
9226832,24159
9228833,25024
9230836,24536
9232837,24935
9234841,24892
9236842,24483
9238842,25034
9240844,24521
9242848,24943
9244850,24895
9246851,24496
9248852,25032
9250855,24594
9252857,24926
9254858,24900
9256859,24511
9258859,25056
9260859,24623
9262861,24851
9264863,24954
9266864,24424
9268864,25040
9270866,24678
9272869,24783
9274872,24895
9276872,24443
9278872,25030
9280872,24773
9282874,24759
9284877,25014
9286879,24408
9288879,25020
9290883,24804
9292885,24735
9294887,25018
9296888,24421
9298891,25011
9300891,24791
9302893,24757
9304895,25005
9306896,24441
9308896,25029
9310896,24864
9312899,24647
9314901,25030
9316902,24472
9318902,24983
9320903,24929
9322905,24567
9324906,25028
9326907,24514
9328909,22856
9330911,22695
9332913,22422
9334915,22857
9336918,22371
9338921,22773
9340923,22744
9342926,22376
9344930,22894
9346933,22286
9348936,22838
9350937,22692
9352941,22458
9354944,22877
9356944,22363
9358945,22756
9360946,22766
9362946,22330
9364949,22858
9366950,22461
9368950,23061
9370953,23116
9372957,22644
9374960,23217
9376961,22860
9378965,23103
9380965,23132
9382967,22662
9384969,23251
9386971,22892
9388971,22356
9390973,22446
9392973,21923
9394973,22485
9396976,22183
9398977,22366
9400978,22495
9402979,21886
9404981,22458
9406983,22276
9408985,22550
9410985,22810
9412988,22312
9414989,22862
9416991,22618
9418994,22548
9420994,22842
9422998,22243
9425001,22825
9427001,22584
9429001,23590
9431003,23879
9433007,23416
9435009,23937
9437009,23769
9439010,23484
9441014,23969
9443016,23372
9445017,23937
9447017,23845
9449017,25484
9451020,26110
9453024,25597
9455026,26069
9457026,25978
9459026,25599
9461029,26158
9463030,25568
9465030,26052
9467032,26277
9469032,27571
9471035,28329
9473036,27843
9475038,28149
9477039,28200
9479042,27714
9481046,28322
9483048,27755
9485051,28196
9487055,28111
9489055,27067
9491057,27694
9493057,27080
9495059,27504
9497059,27506
9499060,26982
9501061,27622
9503064,27154
9505067,27465
9507069,27271
9509073,24965
9511073,25415
9513075,24987
9515076,25271
9517079,25321
9519080,24820
9521080,25440
9523083,25092
9525086,25278
9527089,25320
9529091,24942
9531092,25439
9533096,25022
9535098,25250
9537098,25332
9539101,24809
9541101,25464
9543102,25032
9545104,25126
9547106,24997
9549106,22372
9551108,22855
9553109,22557
9555112,22688
9557113,22809
9559115,22290
9561115,22844
9563118,22564
9565119,22611
9567123,22660
9569124,21309
9571125,21803
9573125,21516
9575127,21553
9577131,21762
9579131,21229
9581133,21752
9583134,21535
9585170,21786
9587171,21529
9589173,20697
9591174,21050
9593177,20569
9595180,20984
9597180,20902
9599181,20625
9601182,21088
9603182,20632
9605186,21012
9607187,20796
9609188,19940
9611192,20349
9613195,19950
9615199,20269
9617200,20197
9619204,19953
9621205,20361
9623208,19930
9625209,20274
9627209,20240
9629213,20241
9631214,20703
9633215,20347
9635218,20613
9637221,20569
9639221,20253
9641224,20689
9643224,20323
9645226,20604
9647228,20601
9649231,20193
9651233,20687
9653235,20351
9655235,20580
9657239,20623
9659242,20173
9661244,20671
9663245,20353
9665247,20575
9667249,20445
9669249,20183
9671249,20691
9673251,20473
9675254,20570
9677254,20585
9679254,20117
9681257,20691
9683257,20397
9685258,20519
9687261,20735
9689263,20493
9691265,21017
9693265,20763
9695266,20803
9697266,21022
9699268,20501
9701269,21056
9703269,20797
9705271,20780
9707271,20985
9709271,20511
9711274,20986
9713276,20876
9715278,20680
9717280,21044
9719282,20566
9721285,21008
9723285,20883
9725285,20700
9727287,20924
9729288,20273
9731290,20603
9733292,20551
9735293,20200
9737297,20669
9739300,20293
9741300,20625
9743304,20587
9745304,20217
9747304,20717
9749307,20321
9751308,20633
9753310,20616
9755312,20219
9757312,20695
9759314,20227
9761315,20569
9763315,20607
9765318,20185
9767318,20707
9769320,20381
9771321,20580
9773322,20651
9775322,20164
9777325,20684
9779328,20389
9781331,20563
9783331,20637
9785334,20138
9787338,20686
9789338,20377
9791342,20535
9793345,20635
9795347,20166
9797350,20592
9799350,20389
9801352,20523
9803355,20642
9805355,20177
9807359,20697
9809362,20409
9811364,20571
9813365,20634
9815367,20244
9817367,21649
9819371,21505
9821373,21630
9823375,21739
9825376,21204
9827376,21773
9829379,21478
9831383,21603
9833386,21730
9835387,21244
9837389,22432
9839392,22240
9841396,22313
9843396,22444
9845398,21967
9847401,22478
9849401,22181
9851403,22314
9853406,22452
9855406,21935
9857409,18981
9859412,18214
9861416,18418
9863420,18404
9865421,18079
9867424,18460
9869428,18163
9871429,18446
9873431,18390
9875434,18155
9877434,12023
9879434,10987
9881437,11114
9883440,11040
9885442,10983
9887443,11134
9889443,10989
9891445,11069
9893448,11124
9895448,10890
9897448,18873
9899451,19700
9901451,19763
9903455,19934
9905455,19478
9907455,20082
9909458,19721
9911458,19691
9913460,19944
9915462,19477
9917462,43103
9919462,46612
9921465,46065
9923469,46821
9925470,46037
9927471,46715
9929474,46476
9931478,46201
9933480,46844
9935480,46003
9937484,63069
9939485,62944
9941486,63100
9943486,62996
9945486,62927
9947487,63041
9949487,63004
9951490,63043
9953492,63035
9955493,63089
9957495,63027
9959497,63119
9961499,62999
9963501,63148
9965502,63111
9967502,63008
9969504,63124
9971505,63018
9973509,63040
9975511,63079
9977511,49661
9979514,45874
9981518,44937
9983520,45772
9985520,45137
9987521,45263
9989521,45691
9991523,44921
9993523,45666
9995524,45157
9997525,10790
9999528,7402
10001532,7297
10003532,7325
10005533,7248
10007537,7299
10009540,7306
10011544,7247
10013545,7343
10015545,7231
10017546,5062
10019546,4825
10021546,4814
10023547,4853
10025548,4817
10027551,4788
10029551,4838
10031555,4780
10033556,4830
10035558,4821
10037559,12857
10039560,14072
10041560,13946
10043563,13976
10045564,14065
10047566,13735
10049566,14068
10051569,14000
10053570,13899
10055573,14098
10057573,19294
10059575,20329
10061575,20200
10063577,19963
10065580,20314
10067581,19956
10069583,20243
10071585,20291
10073588,19888
10075589,20331
10077590,20638
10079590,20855
10081594,20933
10083594,20530
10085596,21064
10087596,20808
10089597,20829
10091600,21021
10093603,20519
10095606,21048
10097606,20503
10099606,20423
10101609,20649
10103612,20181
10105616,20656
10107619,20487
10109622,20422
10111623,20602
10113624,20148
10115624,20637
10117626,19797
10119628,19620
10121632,19889
10123636,19439
10125637,19917
10127640,19811
10129641,19631
10131641,19970
10133645,19551
10135645,19911
10137645,20177
10139648,19940
10141649,20357
10143651,19926
10145653,20178
10147655,20229
10149656,19875
10151656,20322
10153658,19945
10155661,20239
10157662,20235
10159665,19881
10161665,20306
10163668,20025
10165668,20170
10167669,20266
10169673,19843
10171677,20450
10173679,20018
10175680,20163
10177682,20636
10179683,20158
10181684,20673
10183684,20457
10185685,20479
10187686,20695
10189690,20165
10191693,20660
10193694,20447
10195697,20492
10197697,21666
10199701,21256
10201704,21763
10203705,21582
10205707,21462
10207707,21789
10209707,21283
10211709,21764
10213712,21648
10215716,21482
10217719,21786
10219722,21253
10221724,21766
10223727,21622
10225727,21417
10227730,21786
10229732,21307
10231734,21740
10233735,21598
10235736,21430
10237739,21105
10239739,20592
10241741,20992
10243743,20871
10245745,20625
10247747,21082
10249748,20621
10251750,20960
10253753,20891
10255757,20575
10257759,22489
10259761,22078
10261761,22411
10263763,22405
10265764,21975
10267767,22500
10269767,22193
10271770,22393
10273773,22400
10275775,21975
10277777,22182
10279778,21814
10281779,21955
10283781,22067
10285782,21594
10287785,22171
10289789,21834
10291791,22019
10293793,22079
10295796,21571
10297798,22492
10299798,22191
10301798,22248
10303800,22462
10305803,21947
10307805,22496
10309805,22241
10311807,22217
10313807,22589
10315810,21953
10317813,22846
10319813,22626
10321816,22598
10323817,22826
10325817,22305
10327817,22843
10329817,22632
10331819,22533
10333822,22856
10335823,22289
10337824,23879
10339828,23721
10341832,23649
10343835,23939
10345838,23378
10347841,23949
10349841,23665
10351845,23709
10353847,23849
10355849,23377
10357853,24612
10359856,24369
10361856,24440
10363857,24621
10365857,24064
10367859,24694
10369862,24377
10371862,24463
10373865,24591
10375865,24073
10377868,25027
10379870,24677
10381871,24789
10383871,24991
10385875,24411
10387877,25030
10389877,24741
10391880,24814
10393884,24956
10395885,24406
10397885,25399
10399889,25096
10401892,25200
10403895,25306
10405898,24821
10407898,25429
10409898,25106
10411898,25195
10413902,25383
10415904,24805
10417906,26414
10419907,26108
10421908,26291
10423909,26439
10425911,25796
10427913,26460
10429913,26134
10431915,26241
10433918,26449
10435921,25848
10437923,26547
10439926,26125
10441929,26264
10443931,26435
10445932,25800
10447933,26510
10449936,26139
10451939,26285
10453942,26458
10455945,25836
10457949,27600
10459952,27258
10461955,27400
10463956,27775
10465956,27056
10467956,27619
10469956,27275
10471960,27344
10473962,27573
10475962,26948
10477963,28282
10479963,28007
10481966,28008
10483968,28267
10485969,27648
10487971,28313
10489974,28005
10491977,28004
10493977,28272
10495979,27633
10497979,29345
10499979,29134
10501981,29059
10503984,29427
10505987,28729
10507991,29428
10509992,29150
10511993,29120
10513995,29374
10515995,28707
10517998,30841
10520001,30562
10522001,30556
10524004,30809
10526007,30024
10528007,30867
10530010,30472
10532012,30622
10534013,30827
10536016,30160
10538016,31593
10540019,31177
10542022,31343
10544023,31536
10546023,30870
10548025,31670
10550029,31052
10552031,31454
10554034,31467
10556035,30932
10558037,31986
10560039,31408
10562041,31764
10564043,31850
10566046,31301
10568050,32008
10570052,31353
10572054,31766
10574056,31790
10576057,31307
10578058,33739
10580061,33125
10582062,33613
10584062,33625
10586065,33107
10588067,33779
10590071,33097
10592072,33524
10594073,33575
10596074,33131
10598074,34882
10600078,34186
10602080,34750
10604083,34668
10606083,34267
10608085,34907
10610088,34109
10612088,34825
10614090,34604
10616091,34219
10618095,35922
10620096,35164
10622096,35819
10624096,35700
10626096,35323
10628098,35971
10630101,35182
10632104,35906
10634108,35635
10636108,35379
10638110,36097
10640110,35553
10642112,36310
10644115,36012
10646116,35802
10648117,36299
10650117,35561
10652117,36257
10654120,35952
10656122,35796
10658122,37015
10660124,36278
10662127,37011
10664128,36665
10666132,36594
10668134,37005
10670136,36273
10672138,37037
10674139,36544
10676139,36657
10678141,37333
10680144,36581
10682148,37408
10684151,36785
10686151,36992
10688154,37276
10690158,36647
10692161,37454
10694161,36881
10696162,37167
10698165,36177
10700166,35633
10702169,36362
10704172,35606
10706174,36217
10708177,36055
10710180,35707
10712180,36362
10714181,35603
10716181,36181
10718181,34637
10720181,34216
10722184,34781
10724187,34118
10726187,34812
10728189,34618
10730191,34333
10732191,34977
10734194,34188
10736197,34775
10738198,33565
10740198,33236
10742201,33836
10744202,33058
10746206,33711
10748206,33500
10750206,33173
10752208,33777
10754211,33044
10756211,33637
10758212,31390
10760213,31028
10762216,31624
10764219,30912
10766223,31558
10768226,31351
10770229,31136
10772229,31598
10774231,30914
10776232,31355
10778232,30241
10780233,29970
10782233,30534
10784237,29763
10786238,30433
10788240,30235
10790241,29931
10792244,30534
10794247,29831
10796248,29988
10798248,28505
10800252,28194
10802254,28748
10804256,28104
10806257,28622
10808259,28499
10810259,28142
10812263,28734
10814266,28114
10816267,28265
10818268,27093
10820271,26720
10822274,27254
10824278,26628
10826278,27139
10828281,27073
10830285,26784
10832286,27242
10834287,26703
10836290,27165
10838291,27178
10840291,26660
10842291,27313
10844291,26732
10846292,27173
10848294,27122
10850296,26619
10852297,27270
10854297,26819
10856300,26931
10858303,26607
10860304,25852
10862307,26500
10864307,26097
10866308,26329
10868308,26440
10870308,25681
10872311,26488
10874313,26114
10876313,26149
10878313,26106
10880317,25488
10882320,26090
10884321,25772
10886325,25969
10888327,26071
10890329,25523
10892331,26136
10894333,25761
10896336,25953
10898336,26106
10900339,25496
10902340,26157
10904340,25816
10906343,25875
10908345,26119
10910346,25519
10912346,26137
10914347,25850
10916347,25770
10918349,26131
10920351,25519
10922352,26144
10924352,25915
10926353,25762
10928356,26133
10930359,25504
10932359,26103
10934361,25989
10936362,25607
10938363,25441
10940363,24834
10942366,25372
10944367,25256
10946369,24930
10948372,25437
10950374,24853
10952377,25336
10954379,25168
10956380,24901
10958380,25419
10960381,24911
10962385,25340
10964389,25187
10966391,24980
10968394,25441
10970395,24847
10972398,25387
10974401,25243
10976404,25338
10978404,26472
10980405,25875
10982408,26414
10984409,26347
10986409,25921
10988410,26546
10990410,26021
10992414,26384
10994418,26097
10996418,25932
10998421,26534
11000424,25986
11002426,26452
11004429,26305
11006433,25991
11008435,26506
11010436,25903
11012439,26505
11014439,26297
11016440,25828
11018442,26187
11020443,25562
11022444,26051
11024448,25992
11026450,25706
11028451,26158
11030453,25545
11032455,26062
11034456,25998
11036458,25627
11038458,26155
11040462,25572
11042465,26026
11044468,25898
11046471,25742
11048473,26143
11050474,25547
11052474,26147
11054475,25991
11056479,25768
11058481,26506
11060481,25884
11062481,26438
11064481,26404
11066481,26087
11068481,26519
11070482,25931
11072485,26410
11074487,26388
11076487,25937
11078490,26518
11080493,25913
11082494,26456
11084496,26346
11086497,25968
11088499,26540
11090501,25914
11092505,26375
11094507,26357
11096508,25893
11098512,26530
11100514,25912
11102514,26416
11104517,26374
11106520,25966
11108521,26522
11110525,25929
11112526,26416
11114528,26329
11116529,25808
11118530,26133
11120534,25587
11122537,26060
11124539,25981
11126539,25592
11128539,26177
11130539,25674
11132540,25998
11134541,25991
11136543,25685
11138543,26524
11140543,26057
11142545,26329
11144548,26414
11146550,25872
11148553,26513
11150556,25978
11152557,26333
11154560,26373
11156562,25896
11158563,26554
11160565,26041
11162569,26387
11164572,26398
11166575,25930
11168579,26582
11170581,25960
11172583,26424
11174585,26355
11176585,25808
11178587,26271
11180590,25569
11182592,26061
11184595,26017
11186598,25615
11188602,26166
11190603,25555
11192606,26058
11194609,25968
11196609,25363
11198610,25552
11200611,24829
11202611,25320
11204612,25312
11206612,24881
11208616,25455
11210620,24881
11212622,25345
11214625,25340
11216627,24517
11218628,24686
11220630,24186
11222630,24511
11224632,24575
11226634,24098
11228635,24669
11230635,24247
11232638,24479
11234640,24535
11236643,24311
11238645,25032
11240647,24689
11242651,24953
11244653,25038
11246656,24439
11248657,25062
11250661,24579
11252664,24912
11254667,25054
11256670,24455
11258673,25060
11260676,24657
11262677,24867
11264681,24940
11266681,24435
11268683,25124
11270684,24677
11272684,24801
11274688,24935
11276689,24415
11278690,25054
11280690,24591
11282693,24847
11284695,24932
11286696,24421
11288696,25046
11290698,24723
11292700,24785
11294702,24981
11296702,24407
11298704,25040
11300708,24760
11302711,24803
11304713,25022
11306713,24581
11308716,25023
11310720,24657
11312721,24790
11314722,24986
11316726,24426
11318729,25052
11320729,24741
11322729,24738
11324729,25014
11326732,24369
11328735,24987
11330736,24755
11332739,24743
11334742,25024
11336744,24431
11338748,24463
11340749,22662
11342749,22623
11344749,22810
11346752,22284
11348753,22902
11350754,22576
11352756,22607
11354756,22855
11356758,22243
11358758,22824
11360758,22659
11362761,22461
11364764,22862
11366767,22340
11368769,22858
11370770,22709
11372770,22454
11374772,22866
11376775,22370
11378775,22794
11380777,22742
11382778,22421
11384778,23231
11386780,22824
11388782,23093
11390783,23147
11392784,22684
11394787,23201
11396789,22875
11398791,22991
11400795,23170
11402797,22709
11404800,23228
11406802,22164
11408803,22330
11410807,22394
11412809,21990
11414810,22490
11416811,22223
11418813,22305
11420813,22473
11422815,21900
11424816,22506
11426816,22208
11428819,22613
11430820,22799
11432820,22277
11434823,22862
11436824,22608
11438824,22534
11440825,22856
11442828,22329
11444830,22814
11446833,22648
11448836,22504
11450837,23825
11452839,23388
11454841,23943
11456841,23757
11458841,23591
11460842,23965
11462845,23414
11464845,23938
11466848,23829
11468850,23569
11470851,23978
11472854,25231
11474854,25992
11476855,26040
11478857,25619
11480860,26149
11482860,25704
11484860,26005
11486863,26049
11488863,25530
11490865,26167
11492866,25649
11494866,27422
11496866,28280
11498867,27662
11500867,28352
11502867,27995
11504871,28049
11506872,28285
11508873,27660
11510875,28284
11512876,28031
11514879,27991
11516882,27777
11518882,26964
11520883,27606
11522886,27341
11524889,27321
11526892,27596
11528892,26964
11530893,27607
11532897,27277
11534899,27315
11536900,27534
11538900,25942
11540900,25435
11542901,25105
11544903,25151
11546905,25397
11548906,24807
11550907,25391
11552909,25218
11554909,24983
11556912,25421
11558912,24858
11560913,25349
11562916,25218
11564917,24959
11566919,25411
11568921,24876
11570924,25322
11572926,25250
11574927,24694
11576929,25503
11578930,24939
11580930,25270
11582933,25020
11584934,22398
11586936,22902
11588937,22506
11590940,22698
11592943,22812
11594947,22308
11596950,22693
11598954,22475
11600957,22712
11602961,22787
11604961,22298
11606962,21824
11608964,21475
11610966,21752
11612967,21739
11614970,21216
11616972,21770
11618974,21540
11620974,21580
11622977,21703
11624977,21218
11626980,21806
11628981,20855
11630984,20733
11632985,21040
11634987,20455
11636990,21040
11638991,20835
11640991,20654
11642993,21052
11644996,20501
11646997,20884
11648999,20924
11651003,20078
11653004,20295
11655006,19848
11657008,20309
11659011,20164
11661014,19972
11663015,20345
11665018,19868
11667019,20297
11669023,20217
11671027,19973
11673030,20634
11675032,20285
11677032,20605
11679033,20601
11681037,20258
11683041,20711
11685045,20254
11687048,20624
11689052,20567
11691055,20310
11693056,20693
11695056,20286
11697056,20616
11699057,20588
11701059,20255
11703060,20731
11705061,20365
11707061,20564
11709063,20617
11711063,20128
11713064,20699
11715065,20449
11717068,20505
11719068,20641
11721068,20130
11723072,20679
11725073,20443
11727073,20437
11729077,20663
11731079,20183
11733081,20672
11735081,20493
11737083,20425
11739084,20877
11741084,20595
11743087,20975
11745090,20864
11747093,20709
11749094,21030
11751096,20530
11753099,20985
11755102,20851
11757102,20675
11759102,21059
11761102,20695
11763103,20971
11765104,20902
11767104,20508
11769106,21066
11771106,20752
11773106,20877
11775109,21002
11777109,20473
11779113,21025
11781113,20791
11783115,20701
11785117,20708
11787117,20190
11789119,20681
11791119,20519
11793122,20445
11795125,20590
11797127,20172
11799129,20691
11801132,20524
11803132,20382
11805169,20596
11807170,20226
11809171,20739
11811175,20328
11813179,20653
11815181,20542
11817184,20287
11819184,20699
11821188,20279
11823190,20619
11825190,20537
11827190,20188
11829194,20683
11831196,20339
11833198,20595
11835200,20631
11837200,20151
11839204,20695
11841206,20410
11843207,20485
11845209,20639
11847210,20200
11849213,20704
11851217,20383
11853220,20529
11855222,20645
11857222,20183
11859225,20660
11861228,20426
11863231,20513
11865234,20691
11867235,20149
11869238,20659
11871239,20445
11873240,20453
11875240,20673
11877242,20142
11879243,20667
11881247,20584
11883249,21491
11885251,21754
11887253,21247
11889253,21731
11891256,21598
11893258,21441
11895261,21764
11897264,21266
11899264,22207
11901266,22352
11903267,22023
11905267,22470
11907270,22139
11909270,22438
11911274,22416
11913275,21965
11915275,22530
11917278,18377
11919281,18454
11921284,18425
11923284,18072
11925286,18548
11927289,18250
11929293,18358
11931294,18522
11933294,14152
11935298,11208
11937299,10998
11939300,11112
11941303,11126
11943305,10869
11945307,11186
11947308,11021
11949308,11017
11951308,19291
11953310,19506
11955312,19882
11957313,19799
11959313,19611
11961317,19963
11963321,19496
11965321,19940
11967321,32552
11969321,45712
11971323,46845
11973326,46218
11975326,46510
11977327,46672
11979330,46079
11981332,46849
11983333,46106
11985337,63002
11987337,62974
11989339,63071
11991342,63069
11993343,63028
11995345,63078
11997346,62990
11999350,63033
12001350,63077
12003351,63041
12005355,63039
12007356,62990
12009358,63142
12011359,63031
12013363,62988
12015367,63111
12017371,62954
12019373,52766
12021374,45515
12023377,45704
12025377,44929
12027380,45796
12029382,45156
12031383,45271
12033386,45638
12035388,44300
12037390,8753
12039392,7245
12041394,7348
12043397,7273
12045398,7300
12047401,7309
12049401,7194
12051403,7315
12053407,5677
12055407,4841
12057407,4845
12059408,4813
12061411,4821
12063413,4828
12065413,4796
12067417,4896
12069418,4837
12071418,13347
12073420,14108
12075421,13829
12077422,13955
12079422,14046
12081426,13813
12083430,14085
12085431,13863
12087431,16642
12089432,20015
12091434,19692
12093438,20326
12095438,20049
12097438,20086
12099441,20321
12101442,19831
12103442,20301
12105444,20815
12107447,20721
12109449,21018
12111450,20499
12113452,21026
12115456,20864
12117457,20715
12119457,21046
12121461,20453
12123462,20637
12125465,20529
12127465,20327
12129468,20713
12131470,20225
12133470,20628
12135473,20529
12137475,20298
12139477,20082
12141477,19613
12143481,19968
12145483,19847
12147483,19475
12149486,19983
12151486,19637
12153487,19867
12155489,19917
12157493,19803
12159494,20329
12161494,20018
12163496,20222
12165499,20282
12167501,19792
12169505,20339
12171508,19958
12173511,20185
12175512,20243
12177515,19860
12179515,20345
12181515,20087
12183519,20160
12185521,20266
12187524,19787
12189527,20324
12191529,20365
12193530,20545
12195530,20659
12197532,20102
12199534,20671
12201534,20441
12203537,20429
12205541,20657
12207543,20707
12209546,21786
12211548,21535
12213549,21549
12215550,21774
12217550,21241
12219550,21747
12221551,21682
12223554,21487
12225557,21790
12227559,21249
12229559,21742
12231562,21584
12233562,21571
12235565,21782
12237567,21243
12239571,21748
12241573,21345
12243575,20719
12245576,21048
12247577,20568
12249578,20980
12251580,20913
12253580,20569
12255583,21132
12257585,20685
12259586,22204
12261588,22346
12263591,21979
12265591,22528
12267593,22111
12269595,22385
12271598,22422
12273601,21993
12275602,22464
12277605,21801
12279605,21999
12281607,22095
12283607,21619
12285607,22192
12287610,21795
12289613,22022
12291614,22071
12293617,21873
12295621,22516
12297622,22173
12299622,22370
12301624,22439
12303626,21937
12305629,22481
12307630,22156
12309634,22344
12311635,22780
12313636,22295
12315636,22869
12317637,22585
12319640,22648
12321643,22786
12323646,22328
12325649,22915
12327650,23272
12329650,23763
12331650,23937
12333654,23374
12335655,24000
12337655,23683
12339656,23786
12341658,24026
12343662,23374
12345664,24583
12347665,24429
12349669,24325
12351672,24665
12353675,24118
12355675,24669
12357676,24445
12359678,24336
12361678,24809
12363680,24396
12365681,25003
12367681,24853
12369685,24713
12371685,25043
12373688,24433
12375689,25006
12377691,24939
12379691,24789
12381692,25453
12383694,24837
12385694,25340
12387695,25238
12389696,24937
12391698,25487
12393698,24914
12395701,25497
12397702,26392
12399702,25877
12401705,26512
12403706,25896
12405707,26349
12407708,26412
12409708,25859
12411712,26532
12413715,26055
12415716,26309
12417716,26438
12419720,25928
12421722,26611
12423725,26051
12425727,26293
12427728,26311
12429729,25873
12431732,27620
12433735,27173
12435737,27454
12437741,27439
12439745,27064
12441749,27622
12443752,27018
12445755,27538
12447755,27991
12449757,27753
12451759,28364
12453760,27730
12455760,28203
12457760,28226
12459761,27748
12461764,28314
12463767,27765
12465768,29249
12467768,29261
12469768,28788
12471772,29469
12473773,28862
12475773,29271
12477775,29321
12479778,28839
12481781,30383
12483784,30235
12485785,30784
12487789,30658
12489790,30284
12491791,30890
12493792,30275
12495793,30830
12497797,30660
12499797,30934
12501800,31621
12503801,30946
12505802,31467
12507804,31443
12509805,31038
12511807,31716
12513809,30926
12515810,31675
12517811,31750
12519812,31369
12521814,31969
12523817,31236
12525818,31891
12527818,31808
12529818,31324
12531821,31975
12533824,32834
12535826,33613
12537827,33620
12539827,33085
12541829,33829
12543829,33130
12545830,33587
12547834,33572
12549835,33326
12551837,34887
12553840,34212
12555842,34757
12557844,34682
12559846,34289
12561846,35013
12563850,34148
12565851,34779
12567851,35453
12569851,35264
12571852,35980
12573855,35221
12575855,35868
12577859,35713
12579862,35291
12581865,35987
12583868,35222
12585872,36275
12587873,35948
12589873,35754
12591876,36299
12593878,35551
12595878,36271
12597878,35958
12599878,35834
12601881,36806
12603884,36195
12605886,37012
12607887,36616
12609887,36608
12611891,36944
12613894,36291
12615895,37179
12617897,36550
12619899,37020
12621901,37292
12623903,36586
12625905,37412
12627907,36869
12629907,37067
12631909,37284
12633913,36638
12635916,36941
12637917,35754
12639917,36074
12641917,36239
12643919,35515
12645920,36329
12647923,35790
12649926,36289
12651928,36215
12653931,34343
12655933,34962
12657937,34172
12659940,34696
12661940,34631
12663940,34092
12665944,34776
12667946,34075
12669948,34467
12671950,33585
12673952,33153
12675954,33759
12677955,33029
12679958,33691
12681962,33490
12683965,33193
12685967,33748
12687969,31373
12689969,31577
12691972,31313
12693974,31096
12695975,31582
12697976,30886
12699977,31551
12701980,31306
12703980,30992
12705980,30540
12707981,29815
12709983,30448
12711984,30282
12713985,29962
12715985,30506
12717985,29854
12719985,30374
12721985,29172
12723988,28104
12725991,28734
12727991,28112
12729994,28557
12731995,28545
12733997,28098
12735997,28690
12737997,28213
12739998,27183
12741998,27185
12744001,26623
12746002,27277
12748004,26812
12750004,26987
12752007,27158
12754010,26622
12756011,27246
12758012,26885
12760013,27034
12762016,27208
12764020,26642
12766022,27261
12768023,26885
12770027,27052
12772027,27242
12774029,25964
12776030,26519
12778030,26155
12780034,26230
12782036,26466
12784039,25862
12786039,26500
12788039,26183
12790039,26106
12792042,26104
12794043,25535
12796043,26141
12798044,25866
12800048,25842
12802049,26135
12804049,25502
12806053,26109
12808053,25894
12810054,25726
12812058,26141
12814060,25525
12816061,26099
12818065,25937
12820068,25829
12822069,26161
12824072,25549
12826073,26057
12828073,25950
12830075,25655
12832077,26161
12834079,25543
12836081,26059
12838082,25988
12840085,25668
12842088,25586
12844089,24866
12846089,25345
12848089,25212
12850093,24958
12852095,25405
12854096,24941
12856100,25383
12858100,25256
12860104,24925
12862108,25413
12864112,24808
12866113,25380
12868117,25235
12870121,25042
12872124,25435
12874126,24806
12876130,26019
12878130,26270
12880130,26046
12882130,26498
12884132,25816
12886133,26434
12888135,26353
12890135,25916
12892136,26512
12894140,26051
12896143,26464
12898146,26351
12900148,25941
12902149,26524
12904149,26010
12906149,26372
12908151,26426
12910153,25738
12912154,26159
12914158,25713
12916158,25972
12918159,26023
12920163,25603
12922164,26137
12924164,25555
12926166,26002
12928166,26119
12930166,25510
12932166,26147
12934167,25811
12936169,25794
12938173,26103
12940173,25525
12942176,26165
12944178,25879
12946181,26205
12948182,26492
12950182,25849
12952182,26454
12954186,26281
12956187,26111
12958188,26503
12960188,25841
12962192,26388
12964195,26274
12966196,26189
12968199,26527
12970200,25879
12972203,26446
12974204,26289
12976206,26035
12978208,26526
12980211,25871
12982214,26462
12984215,26299
12986218,25944
12988218,26532
12990218,25896
12992218,26460
12994220,26379
12996220,25659
12998221,26150
13000223,25688
13002224,26004
13004227,26015
13006228,25543
13008231,26170
13010235,25698
13012238,26060
13014241,26287
13016241,25880
13018245,26552
13020245,26047
13022247,26361
13024251,26390
13026251,25884
13028252,26598
13030256,26077
13032258,26388
13034261,26360
13036265,25875
13038265,26518
13040266,26066
13042266,26299
13044268,26414
13046270,25856
13048271,26194
13050275,25792
13052276,25784
13054277,26107
13056280,25495
13058280,26105
13060280,25823
13062280,25717
13064284,25896
13066284,24816
13068284,25381
13070285,25229
13072286,25022
13074288,25443
13076290,24851
13078294,25336
13080295,25220
13082295,24322
13084295,24678
13086297,24216
13088297,24571
13090298,24552
13092302,24140
13094302,24721
13096305,24222
13098306,24571
13100309,24918
13102311,24499
13104312,25067
13106315,24631
13108317,24889
13110317,24941
13112320,24459
13114320,25076
13116321,24637
13118322,24896
13120322,24985
13122326,24404
13124330,24946
13126334,24679
13128335,24909
13130335,24957
13132336,24431
13134336,25033
13136336,24723
13138337,24769
13140341,24997
13142344,24406
13144346,25050
13146348,24780
13148348,24761
13150350,25035
13152353,24439
13154355,24981
13156358,24781
13158358,24711
13160361,25032
13162364,24453
13164365,25008
13166367,24789
13168368,24721
13170369,25019
13172369,24442
13174371,25042
13176374,24791
13178374,24589
13180375,25071
13182377,24507
13184380,24902
13186381,23055
13188383,22489
13190384,22850
13192385,22353
13194387,22760
13196390,22720
13198394,22381
13200397,22874
13202398,22442
13204399,22714
13206401,22782
13208402,22375
13210402,22892
13212405,22504
13214407,22721
13216407,22770
13218408,22328
13220409,22862
13222412,22799
13224415,23061
13226417,23151
13228418,22631
13230421,23188
13232422,22890
13234422,22979
13236424,23227
13238428,22628
13240428,22774
13242431,22280
13244435,22262
13246437,22484
13248440,21931
13250440,22480
13252440,22308
13254441,22131
13256442,22534
13258445,22132
13260447,22811
13262448,22718
13264451,22474
13266455,22858
13268455,22376
13270458,22790
13272461,22696
13274463,22392
13276463,23423
13278464,23546
13280464,23705
13282467,23838
13284468,23469
13286468,24001
13288468,23588
13290470,23841
13292471,23957
13294473,23737
13296475,26113
13298478,25781
13300478,25832
13302479,26090
13304480,25463
13306483,26166
13308484,25788
13310484,25807
13312485,26338
13314487,27562
13316491,28294
13318492,28047
13320492,27937
13322492,28278
13324494,27674
13326496,28267
13328499,28011
13330503,27951
13332504,27561
13334506,26985
13336509,27607
13338510,27046
13340510,27332
13342512,27603
13344515,26935
13346516,27611
13348516,27330
13350517,25240
13352521,25421
13354521,24837
13356521,25357
13358523,25222
13360525,24957
13362529,25406
13364533,24778
13366533,25529
13368535,25256
13370536,24911
13372539,25347
13374542,24829
13376543,25367
13378544,25276
13380545,24951
13382547,25415
13384549,24938
13386550,23003
13388553,22692
13390553,22372
13392556,22878
13394558,22416
13396558,22750
13398560,22728
13400560,22282
13402560,22824
13404561,21426
13406564,21623
13408567,21742
13410567,21245
13412567,21782
13414570,21493
13416571,21606
13418571,21724
13420574,21214
13422577,21156
13424580,20799
13426582,20793
13428582,20988
13430583,20513
13432585,21056
13434588,20812
13436590,20790
13438593,21011
13440597,19981
13442598,20325
13444601,20126
13446601,20049
13448601,20322
13450601,19855
13452604,20305
13454607,20152
13456607,19988
13458607,20543
13460608,20244
13462610,20612
13464612,20557
13466616,20249
13468619,20675
13470620,20286
13472622,20603
13474624,20583
13476627,20216
13478629,20705
13480631,20315
13482634,20563
13484634,20630
13486634,20200
13488636,20719
13490640,20335
13492643,20585
13494647,20593
13496648,20160
13498652,20677
13500653,20365
13502653,20509
13504656,20604
13506656,20164
13508656,20720
13510659,20375
13512662,20583
13514665,20960
13516665,20509
13518665,21058
13520665,20827
13522668,20817
13524668,21013
13526668,20519
13528669,21012
13530671,20855
13532674,20727
13534675,21019
13536678,20373
13538681,20988
13540683,20861
13542685,20692
13544689,21036
13546690,20551
13548690,21017
13550693,20546
13552694,20321
13554697,20693
13556697,20146
13558697,20663
13560697,20643
13562700,20295
13564703,20696
13566703,20319
13568703,20575
13570705,20584
13572708,20188
13574711,20715
13576711,20335
13578712,20586
13580716,20608
13582716,20210
13584716,20675
13586720,20365
13588724,20546
13590725,20633
13592725,20154
13594728,20683
13596729,20380
13598731,20489
13600732,20563
13602735,20160
13604735,20687
13606739,20362
13608740,20477
13610741,20630
13612741,20146
13614744,20693
13616746,20479
13618747,20434
13620747,20656
13622750,21095
13624751,21756
13626754,21585
13628754,21474
13630756,21772
13632757,21255
13634758,21738
13636762,21608
13638765,21438
13640765,22370
13642768,21971
13644771,22414
13646773,22273
13648776,22131
13650778,22494
13652780,21971
13654782,22342
13656784,22353
13658787,19029
13660789,18512
13662792,18087
13664794,18483
13666795,18384
13668796,18178
13670796,18502
13672799,18214
13674799,18452
13676799,13670
13678800,10983
13680803,11124
13682806,10994
13684808,11102
13686811,11124
13688812,10939
13690814,11128
13692817,10991
13694817,16046
13696818,19857
13698819,19472
13700820,19940
13702823,19755
13704827,19732
13706827,19926
13708829,19471
13710830,19978
13712830,33045
13714830,45640
13716832,46825
13718835,46068
13720835,46588
13722837,46584
13724839,46102
13726842,46911
13728842,46010
13730842,58098
13732845,63254
13734848,63071
13736849,63081
13738851,63049
13740851,62984
13742853,63031
13744857,63039
13746860,63055
13748860,62987
13750861,63043
13752861,63093
13754864,62896
13756864,63053
13758867,63131
13760870,63015
13762873,63043
13764876,63110
13766877,62998
13768877,47270
13770877,45007
13772881,45790
13774885,45045
13776885,45455
13778888,45664
13780890,44983
13782891,45824
13784893,45104
13786893,9532
13788896,7351
13790897,7293
13792899,7329
13794899,7241
13796899,7351
13798900,7295
13800900,7214
13802904,7343
13804906,4942
13806906,4823
13808910,4849
13810913,4802
13812916,4801
13814919,4839
13816921,4823
13818922,4839
13820922,4822
13822926,13245
13824927,13867
13826929,13759
13828930,14092
13830930,13905
13832932,13976
13834935,14079
13836935,13771
13838935,14074
13840938,19292
13842940,20020
13844942,20323
13846944,19828
13848944,20311
13850948,20142
13852952,19977
13854954,20346
13856957,19878
13858958,20815
13860958,20891
13862962,20698
13864966,21039
13866969,20535
13868973,21024
13870973,20883
13872973,20574
13874973,21024
13876976,20389
13878977,20590
13880981,20612
13882984,20282
13884986,20715
13886989,20287
13888989,20559
13890989,20584
13892992,20174
13894995,20169
13896998,19653
13898999,19781
13901001,19937
13903002,19480
13905002,20004
13907006,19709
13909007,19773
13911009,19948
13913009,19628
13915012,20349
13917013,20128
13919013,20080
13921013,20337
13923016,19872
13925017,20240
13927017,20194
13929017,20014
13931018,20302
13933019,19950
13935022,20268
13937026,20243
13939030,19952
13941030,20314
13943031,20061
13945033,20234
13947036,20202
13949040,20001
13951042,20695
13953046,20276
13955049,20632
13957050,20557
13959051,20207
13961053,20663
13963056,20314
13965057,21229
13967060,21694
13969063,21353
13971063,21791
13973066,21469
13975067,21644
13977067,21718
13979071,21249
13981074,21808
13983076,21443
13985078,21610
13987082,21710
13989082,21229
13991085,21801
13993088,21413
13995091,21178
13997095,20926
13999095,20562
14001095,21052
14003098,20698
14005100,20889
14007102,20930
14009105,20533
14011109,22412
14013111,22179
14015114,22328
14017115,22436
14019117,21957
14021120,22488
14023123,22252
14025126,22143
14027127,22080
14029128,21598
14031131,22179
14033131,21794
14035158,21988
14037159,22005
14039161,21838
14041164,22485
14043165,22012
14045166,22448
14047167,22328
14049170,22076
14051172,22558
14053174,22029
14055175,22692
14057177,22699
14059178,22418
14061179,22863
14063180,22294
14065182,22814
14067182,22743
14069185,22478
14071186,23917
14073189,23381
14075190,23837
14077191,23843
14079191,23239
14081194,23954
14083194,23496
14085197,24333
14087197,24515
14089197,24105
14091198,24698
14093199,24337
14095202,24531
14097205,24540
14099206,24132
14101208,25053
14103211,24474
14105213,24928
14107215,24923
14109216,24520
14111217,25046
14113220,24516
14115223,25200
14117227,25230
14119229,25040
14121230,25435
14123232,24838
14125233,25347
14127236,25182
14129238,25041
14131239,26467
14133239,25889
14135239,26450
14137241,26290
14139244,26026
14141246,26523
14143250,25860
14145253,26454
14147257,26243
14149258,26169
14151258,26513
14153260,25784
14155261,26468
14157263,26269
14159263,26117
14161265,27554
14163265,26969
14165265,27584
14167265,27426
14169268,27158
14171272,27622
14173274,26993
14175277,28111
14177280,28094
14179281,27979
14181283,28264
14183283,27658
14185284,28346
14187284,28069
14189285,27919
14191288,29424
14193289,28733
14195290,29452
14197294,29122
14199296,29073
14201299,29432
14203300,28675
14205300,30516
14207301,30554
14209303,30558
14211303,30902
14213303,30161
14215303,30934
14217306,30572
14219310,30508
14221313,31554
14223314,30740
14225314,31648
14227315,31191
14229319,31287
14231322,31563
14233324,30926
14235328,31893
14237328,31467
14239328,31736
14241330,31864
14243332,31291
14245332,31952
14247333,31529
14249333,31716
14251336,33645
14253340,33041
14255340,33811
14257340,33266
14259341,33541
14261345,33324
14263348,33059
14265349,34689
14267351,34220
14269351,34738
14271351,34758
14273354,34206
14275355,34910
14277355,34260
14279355,34718
14281358,35782
14283360,35246
14285360,35991
14287363,35256
14289363,35842
14291363,35743
14293363,35204
14295366,36269
14297368,35638
14299369,36171
14301370,36095
14303372,35646
14305373,36356
14307373,35617
14309377,36235
14311380,36826
14313384,36374
14315386,37088
14317386,36283
14319389,36954
14321390,36758
14323391,36494
14325392,37273
14327393,36659
14329395,37331
14331396,37003
14333397,36811
14335398,37101
14337398,36604
14339400,37292
14341403,36008
14343404,35886
14345407,36295
14347409,35510
14349411,36320
14351413,35834
14353416,35998
14355416,35063
14357416,34157
14359419,34926
14361422,34335
14363423,34668
14365423,34750
14367425,34178
14369429,34814
14371433,33147
14373436,33631
14375439,33625
14377439,33039
14379439,33793
14381439,33121
14383442,33603
14385444,31779
14387446,30992
14389446,31608
14391447,31036
14393448,31435
14395451,31467
14397451,30996
14399451,31552
14401452,29961
14403453,30307
14405453,30419
14407457,29884
14409460,30515
14411462,29858
14413464,30361
14415466,28812
14417468,28180
14419470,28728
14421471,28063
14423472,28561
14425475,28495
14427475,28124
14429475,28565
14431477,26666
14433478,27186
14435479,26957
14437480,26694
14439481,27278
14441484,26672
14443487,27201
14445490,27091
14447492,26686
14449493,27247
14451495,26674
14453497,27154
14455499,27093
14457502,26704
14459505,27207
14461507,25935
14463509,26420
14465512,26406
14467514,25973
14469518,26527
14471521,25912
14473525,26474
14475526,26036
14477529,25665
14479532,26122
14481534,25539
14483534,26013
14485534,25969
14487537,25585
14489537,26165
14491541,25611
14493543,26069
14495545,25949
14497548,25632
14499551,26168
14501552,25481
14503555,26030
14505557,25956
14507559,25676
14509559,26173
14511559,25541
14513562,25992
14515563,25996
14517564,25537
14519566,25946
14521566,24924
14523567,25308
14525571,25268
14527573,24839
14529574,25396
14531577,24905
14533581,25294
14535584,25276
14537588,25028
14539590,25444
14541591,24893
14543591,25288
14545593,25262
14547597,24899
14549600,25739
14551600,26000
14553600,26362
14555600,26392
14557600,25868
14559601,26506
14561601,26122
14563603,26327
14565606,26429
14567609,25838
14569610,26504
14571614,26146
14573618,26315
14575620,26422
14577621,25876
14579621,26415
14581621,25820
14583624,25868
14585625,26101
14587625,25525
14589626,26131
14591629,25806
14593631,25848
14595633,26087
14597636,25487
14599636,26133
14601639,25848
14603641,25756
14605645,26127
14607645,25479
14609648,26198
14611650,26225
14613654,26088
14615654,26486
14617654,25843
14619657,26478
14621660,26287
14623663,26051
14625663,26509
14627663,25876
14629667,26454
14631668,26301
14633672,26066
14635672,26500
14637673,25882
14639676,26451
14641676,26397
14643676,25956
14645676,26515
14647677,25926
14649679,26375
14651679,26424
14653681,25950
14655681,26170
14657681,25711
14659681,25980
14661684,26075
14663685,25524
14665685,26175
14667687,25781
14669689,26025
14671692,26412
14673693,25857
14675694,26526
14677695,26133
14679696,26328
14681696,26410
14683697,25865
14685700,26503
14687703,26139
14689703,26307
14691706,26424
14693707,25828
14695707,26489
14697710,26201
14699713,26129
14701713,26129
14703714,25539
14705718,26145
14707720,25863
14709721,25836
14711724,26123
14713725,25495
14715725,25473
14717727,25195
14719728,25088
14721731,25449
14723731,24789
14725734,25403
14727734,25221
14729737,24743
14731739,24683
14733742,24078
14735743,24650
14737743,24471
14739746,24286
14741746,24661
14743747,24179
14745747,24913
14747747,24930
14749747,24432
14751749,25070
14753752,24644
14755755,24929
14757755,24993
14759759,24464
14761761,25060
14763763,24593
14765764,24867
14767765,24983
14769765,24449
14771765,25050
14773768,24683
14775769,24843
14777769,24979
14779770,24405
14781770,25030
14783773,24749
14785776,24839
14787778,25022
14789778,24403
14791781,25052
14793783,24750
14795785,24801
14797786,25001
14799790,24443
14801793,25021
14803795,24646
14805797,24854
14807799,24997
14809800,24403
14811803,25046
14813806,24677
14815806,24797
14817808,24975
14819808,24443
14821810,23685
14823811,22638
14825812,22486
14827812,22842
14829815,22307
14831816,22556
14833817,22584
14835819,22606
14837822,22767
14839825,22276
14841826,22875
14843826,22594
14845828,22613
14847829,22838
14849830,22277
14851831,22810
14853832,22583
14855833,22912
14857837,23178
14859839,22618
14861840,23227
14863841,22980
14865845,22938
14867846,23199
14869848,22606
14871849,22783
14873850,22352
14875852,22148
14877852,22573
14879853,21970
14881853,22458
14883855,22334
14885859,22156
14887861,22524
14889865,22330
14891868,22843
14893870,22684
14895870,22468
14897870,22853
14899872,22352
14901874,22805
14903875,22700
14905878,23410
14907880,23969
14909881,23458
14911881,23885
14913885,23832
14915886,23496
14917886,24006
14919889,23568
14921890,25373
14923893,26109
14925895,25596
14927897,26161
14929899,25631
14931902,26070
14933904,26062
14935904,25543
14937907,26394
14939908,27798
14941912,28174
14943913,28178
14945914,27674
14947914,28253
14949917,27876
14951921,28196
14953923,27885
14955925,27081
14957926,27658
14959928,27145
14961930,27450
14963932,27504
14965934,27030
14967935,27646
14969939,27143
14971942,25953
14973946,25293
14975946,24903
14977948,25411
14979949,24929
14981953,25355
14983953,25300
14985956,24753
14987959,25620
14989960,24949
14991960,25240
14993962,25332
14995964,24831
14997965,25444
14999965,25053
15001968,25256
15003972,25345
15005972,22554
15007973,22886
15009976,22481
15011976,22694
15013980,22792
15015984,22289
15017986,22850
15019987,22518
15021987,21947
15023991,21724
15025991,21277
15027993,21779
15029997,21521
15031998,21594
15034001,21723
15036002,21223
15038006,21584
15040007,20777
15042009,20894
15044010,20942
15046013,20478
15048016,21019
15050017,20787
15052019,20848
15054022,21013
15056026,19880
15058028,20321
15060032,20056
15062035,20101
15064038,20269
15066042,19799
15068042,20313
15070043,20090
15072045,20378
15074047,20640
15076050,20158
15078052,20689
15080055,20453
15082056,20481
15084057,20669
15086057,20124
15088060,20696
15090060,20439
15092060,20409
15094063,20665
15096066,20141
15098069,20563
15100069,20432
15102072,20462
15104074,20680
15106074,20192
15108076,20648
15110076,20476
15112076,20398
15114079,20698
15116083,20170
15118087,20655
15120088,20630
15122088,20639
15124092,21070
15126093,20519
15128094,21010
15130098,20873
15132098,20661
15134101,21016
15136105,20535
15138106,20959
15140110,20851
15142114,20723
15144114,21000
15146114,20493
15148115,20944
15150119,20804
15152122,20671
15154126,20984
15156126,20209
15158126,20574
15160130,20527
15162134,20387
15164134,20663
15166136,20154
15168140,20645
15170143,20530
15172146,20225
15174146,20656
15176149,20225
15178153,20613
15180154,20543
15182157,20322
15184159,20678
15186161,20209
15188161,20616
15190162,20455
15192164,20313
15194164,20685
15196165,20222
15198166,20600
15200170,20539
15202172,20233
15204175,20735
15206176,20302
15208178,20575
15210182,20564
15212182,20226
15214182,20691
15216182,20333
15218183,20563
15220183,20609
15222183,21002
15224183,21792
15226186,21513
15228189,21615
15230192,21746
15232193,21220
15234197,21772
15236199,21469
15238199,21819
15240202,22422
15242204,21955
15244207,22493
15246209,22196
15248211,22320
15250212,22465
15252216,21822
15254220,22474
15256221,18466
15258221,18366
15260223,18482
15262224,17943
15264226,18517
15266227,18340
15268227,18270
15270227,18473
15272229,12005
15274231,11179
15276231,11068
15278233,11014
15280234,11163
15282237,10889
15284240,11135
15286242,11090
15288243,14164
15290243,19815
15292245,19751
15294245,19761
15296248,19933
15298249,19454
15300253,19929
15302256,19721
15304256,19767
15306258,45439
15308260,46087
15310263,46609
15312264,46617
15314268,46135
15316271,46851
15318272,46001
15320273,46786
15322273,63066
15324277,62988
15326278,63139
15328280,62931
15330282,63047
15332285,63010
15334286,63048
15336288,62892
15338292,63050
15340294,63053
15342298,63056
15344302,63007
15346304,63014
15348307,63010
15350309,63289
15352312,63053
15354315,62996
15356315,47386
15358315,45664
15360319,44991
15362319,45804
15364319,45009
15366322,45508
15368325,45628
15370328,44938
15372331,12812
15374331,7335
15376332,7348
15378334,7287
15380334,7288
15382334,7306
15384337,7243
15386339,7334
15388343,6015
15390346,4850
15392350,4861
15394353,4847
15396357,4806
15398359,4820
15400359,4781
15402363,4854
15404366,4836
15406366,13494
15408370,14062
15410370,13813
15412372,14074
15414372,14035
15416374,13819
15418377,14092
15420379,13891
15422382,19342
15424384,20243
15426388,19835
15428389,20283
15430392,20017
15432393,20124
15434397,20277
15436398,19787
15438401,20749
15440402,20787
15442402,20755
15444403,21010
15446407,20519
15448410,21032
15450412,20835
15452416,20711
15454419,20960
15456421,20188
15458423,20627
15460424,20530
15462425,20345
15464428,20709
15466430,20215
15468433,20621
15470434,20525
15472437,19705
15474437,19952
15476437,19655
15478441,19898
15480441,19896
15482443,19512
15484445,19999
15486445,19633
15488445,20158
15490449,20192
15492449,19812
15494449,20331
15496449,20075
15498451,20275
15500454,20264
15502458,19788
15504460,20352
15506463,20072
15508463,20162
15510464,20305
15512466,19809
15514467,20328
15516470,20062
15518473,20173
15520476,20303
15522477,20121
15524479,20671
15526479,20457
15528481,20411
15530482,20669
15532485,20148
15534486,20695
15536489,20453
15538491,21152
15540491,21722
15542494,21232
15544494,21748
15546497,21605
15548500,21425
15550503,21774
15552503,21286
15554505,21766
15556506,21618
15558510,21334
15560513,21763
15562513,21303
15564514,21669
15566516,21611
15568517,21409
15570520,21782
15572523,20663
15574525,20990
15576525,20902
15578526,20677
15580527,21100
15582530,20526
15584531,20937
15586533,20894
15588533,21540
15590536,22508
15592538,22085
15594542,22446
15596546,22364
15598547,22057
15600550,22504
15602552,22013
15604554,22356
15606554,22058
15608557,21723
15610560,22155
15612563,21657
15614564,22075
15616565,22000
15618568,21704
15620571,22162
15622573,22132
15624575,22461
15626575,22376
15628577,22052
15630577,22495
15632579,22063
15634582,22406
15636583,22404
15638584,22211
15640585,22864
15642588,22481
15644591,22774
15646593,22728
15648594,22332
15650595,22843
15652595,22456
15654598,22963
15656598,23795
15658601,23389
15660605,23959
15662607,23646
15664609,23845
15666613,23872
15668616,23458
15670620,23963
15672623,24166
15674624,24535
15676624,24563
15678628,24159
15680632,24712
15682635,24160
15684638,24567
15686638,24471
15688639,24371
15690640,24961
15692640,24568
15694640,24867
15696642,24925
15698642,24440
15700643,25004
15702645,24624
15704647,25048
15706651,25361
15708652,24813
15710653,25480
15712657,24980
15714659,25228
15716659,25357
15718659,24845
15720659,25407
15722662,26076
15724665,26380
15726669,26424
15728671,25853
15730671,26515
15732674,26114
15734676,26404
15736677,26432
15738681,25886
15740682,26524
15742685,26097
15744685,26343
15746686,26422
15748690,25880
15750693,26488
15752696,26097
15754698,26540
15756701,27502
15758701,26996
15760702,27666
15762706,27183
15764708,27463
15766711,27495
15768714,27029
15770718,27634
15772721,27715
15774724,28224
15776724,28176
15778724,27700
15780724,28368
15782726,27837
15784730,28161
15786733,28144
15788735,28650
15790737,29466
15792741,28791
15794744,29413
15796744,29259
15798744,28824
15800744,29386
15802746,28892
15804747,29912
15806749,30708
15808751,30229
15810751,30935
15812754,30283
15814755,30786
15816758,30700
15818759,30279
15820760,30924
15822764,30959
15824767,31473
15826767,31429
15828768,30975
15830769,31627
15832771,31044
15834772,31423
15836772,31487
15838774,31203
15840775,31986
15842777,31355
15844779,31798
15846779,31867
15848782,31301
15850785,31961
15852787,31329
15854789,32563
15856791,33609
15858791,33053
15860794,33836
15862795,33139
15864796,33636
15866800,33595
15868803,33099
15870803,33842
15872804,34331
15874804,34687
15876804,34802
15878806,34236
15880810,34890
15882810,34270
15884811,34688
15886812,34703
15888812,34949
15890816,35945
15892817,35261
15894818,35718
15896818,35760
15898820,35242
15900820,35963
15902824,35287
15904828,35828
15906828,36112
15908829,35640
15910830,36380
15912831,35640
15914834,36238
15916834,36083
15918836,35650
15920838,36356
15922839,36345
15924840,36907
15926843,36858
15928844,36356
15930848,37073
15932849,36285
15934849,36939
15936849,36758
15938852,36659
15940852,37433
15942856,36714
15944856,37165
15946859,37132
15948859,36740
15950862,37410
15952866,36607
15954869,36918
15956869,35995
15958870,35800
15960874,36313
15962875,35561
15964875,36247
15966876,36047
15968880,35846
15970883,36303
15972885,34185
15974889,34868
15976891,34489
15978893,34428
15980893,34832
15982894,34105
15984895,34880
15986898,34495
15988900,33537
15990900,33777
15992904,33021
15994906,33784
15996907,33365
15998907,33254
16000908,33757
16002909,32893
16004910,32814
16006911,31322
16008912,31196
16010912,31501
16012914,30882
16014917,31561
16016919,31235
16018919,31116
16020922,31614
16022924,29856
16024927,30407
16026929,30132
16028929,30040
16030929,30482
16032931,29775
16034933,30560
16036934,30208
16038935,28565
16040937,28687
16042939,28022
16044940,28591
16046943,28346
16048947,28291
16050948,28686
16052951,28028
16054953,28070
16056954,27012
16058955,26808
16060955,27263
16062958,26660
16064958,27321
16066959,27093
16068962,26720
16070965,27241
16072967,26672
16074969,27163
16076969,27075
16078970,26728
16080973,27287
16082975,26716
16084976,26450
16086980,26341
16088983,25926
16090985,26508
16092988,25969
16094989,26405
16096990,26105
16098994,25587
16100997,26163
16102998,25655
16105000,26004
16107001,25993
16109003,25568
16111004,26173
16113005,25631
16115008,25968
16117008,26069
16119009,25553
16121009,26166
16123012,25765
16125014,26035
16127016,26002
16129019,25539
16131020,26147
16133020,25792
16135021,25924
16137023,25608
16139025,24787
16141025,25429
16143026,25056
16145029,25188
16147032,25355
16149033,24785
16151034,25575
16153036,25125
16155040,25168
16157042,25405
16159045,24790
16161048,25429
16163051,25050
16165053,26143
16167055,26422
16169056,25835
16171058,26497
16173059,26217
16175059,26169
16177062,26466
16179066,25930
16181068,26479
16183069,26161
16185070,26213
16187070,26506
16189072,25838
16191075,26283
16193077,25844
16195080,25816
16197084,26081
16199087,25503
16201087,26150
16203087,25828
16205090,25856
16207090,26097
16209090,25492
16211090,26123
16213093,25898
16215093,25752
16217096,26374
16219098,25876
16221098,26476
16223101,26233
16225101,26138
16227103,26484
16229106,25856
16231110,26448
16233113,26249
16235117,26202
16237120,26458
16239121,25828
16241125,26502
16243127,26197
16245129,26155
16247129,26470
16249133,25866
16251133,26494
16253134,26202
16255156,26341
16257157,26191
16259157,25569
16261158,26163
16263158,25764
16265164,25963
16267166,26057
16269170,25529
16271173,26500
16273174,26107
16275175,26255
16277177,26453
16279179,25804
16281180,26502
16283182,26115
16285184,26221
16287187,26444
16289188,25782
16291192,26516
16293192,26115
16295193,26237
16297197,26398
16299199,25525
16301202,26132
16303202,25838
16305202,25965
16307202,26119
16309204,25497
16311206,25436
16313209,25085
16315209,25066
16317210,25373
16319210,24834
16321212,25371
16323215,24952
16325215,24283
16327216,24675
16329216,24175
16331218,24587
16333218,24484
16335221,24122
16337223,24953
16339225,24531
16341227,24938
16343230,24893
16345231,24531
16347234,25080
16349237,24512
16351239,25020
16353241,24854
16355242,24468
16357245,25042
16359247,24466
16361250,24945
16363253,24855
16365253,24593
16367257,25066
16369260,24486
16371264,24969
16373267,24873
16375269,24573
16377273,25014
16379277,24425
16381279,25011
16383281,24789
16385285,24675
16387285,25038
16389285,24405
16391288,25010
16393291,24841
16395294,24683
16397296,24777
16399298,24529
16401299,24985
16403299,23171
16405302,22602
16407305,22846
16409309,22288
16411311,22884
16413313,22666
16415314,22570
16417318,22826
16419321,22358
16421321,22807
16423324,22678
16425328,22537
16427331,22876
16429332,22631
16431336,23193
16433338,23009
16435339,22864
16437341,23235
16439341,22712
16441345,22503
16443348,22318
16445351,22177
16447352,22456
16449353,21987
16451357,22452
16453360,22626
16455364,22459
16457366,22894
16459367,22329
16461370,22791
16463371,22699
16465372,22928
16467373,23990
16469374,23512
16471378,23886
16473379,23823
16475380,23400
16477383,24194
16479383,25599
16481386,26014
16483388,26009
16485392,25543
16487395,26161
16489397,25647
16491398,27991
16493400,28240
16495403,27655
16497404,28339
16499404,27852
16501407,28146
16503409,27620
16505411,26994
16507413,27650
16509414,27179
16511417,27456
16513420,27525
16515420,25796
16517420,25476
16519421,25021
16521424,25306
16523425,25181
16525425,24857
16527429,25482
16529433,24972
16531436,25294
16533438,25298
16535439,24871
16537440,25444
16539441,25016
16541443,22876
16543444,22790
16545446,22361
16547449,22860
16549451,22620
16551454,22763
16553457,21855
16555458,21213
16557460,21846
16559463,21429
16561465,21636
16563466,21642
16565469,20738
16567473,21064
16569473,20707
16571476,20904
16573479,20972
16575481,20530
16577485,20852
16579488,20066
16581489,20198
16583491,20269
16585493,19813
16587493,20341
16589493,20078
16591494,20481
16593495,20655
16595497,20148
16597498,20612
16599499,20506
16601503,20444
16603503,20672
16605503,20177
16607503,20655
16609504,20457
16611504,20329
16613505,20679
16615507,20233
16617507,20588
16619510,20526
16621512,20305
16623512,20693
16625514,20259
16627517,20609
16629519,20920
16631521,20577
16633521,20996
16635522,20681
16637525,20946
16639528,20921
16641531,20588
16643533,21034
16645535,20751
16647535,20953
16649535,20963
16651535,20491
16653538,20739
16655539,20438
16657542,20483
16659543,20623
16661543,20124
16663543,20697
16665543,20474
16667547,20426
16669550,20650
16671554,20162
16673556,20667
16675557,20413
16677560,20423
16679562,20635
16681562,20199
16683564,20675
16685564,20521
16687565,20313
16689568,20714
16691571,20223
16693574,20652
16695576,20511
16697579,20373
16699580,20678
16701582,20229
16703584,21615
16705587,21600
16707588,21413
16709589,21792
16711592,21297
16713595,21719
16715596,22180
16717596,22071
16719596,22512
16721598,22095
16723601,22393
16725604,22514
16727605,20527
16729606,18594
16731608,18166
16733610,18414
16735610,18432
16737613,18070
16739615,18503
16741615,11327
16743619,11134
16745620,11104
16747622,10933
16749622,11147
16751624,10998
16753627,18688
16755631,19909
16757633,19462
16759633,19916
16761636,19763
16763637,19759
16765637,39493
16767641,46229
16769641,46278
16771642,46724
16773643,46046
16775646,46867
16777649,61282
16779652,62992
16781652,62684
16783656,63049
16785657,63082
16787660,63071
16789662,63025
16791663,63132
16793666,63068
16795666,63094
16797669,63006
16799669,62936
16801669,63069
16803669,49577
16805669,45074
16807669,45649
16809672,45379
16811675,45060
16813677,45794
16815679,16524
16817679,7584
16819683,7281
16821686,7322
16823688,7329
16825689,7156
16827692,6167
16829693,4869
16831695,4849
16833699,4822
16835701,4778
16837703,4807
16839704,4835
