10,32260
2012,32067
4014,31971
6014,31473
8014,29906
10016,29757
12020,28856
14022,27600
16022,26607
18024,25960
20060,25007
22064,23747
24064,23999
26066,23534
28067,23311
30070,23128
32071,22368
34071,22852
36109,22270
38109,22826
40110,21976
42111,21963
44112,22067
46116,22411
48119,23197
50121,22902
52122,22740
54123,22795
56124,22305
58127,23133
60128,22952
62131,22999
64132,23163
66133,22607
68136,22883
70139,22812
72139,23028
74142,23197
76145,22364
78146,22771
80147,21797
82148,21693
84150,21695
86150,21224
88151,21770
90264,21758
92268,21620
94268,21461
96269,21791
98271,21343
100273,21104
102276,20881
104276,20699
106279,21318
108279,20885
110279,20641
112281,20815
114281,20611
116282,21993
118284,23101
120287,23903
122288,25956
124288,24975
126289,25274
128292,22887
130295,23090
132298,22835
134298,20584
136301,20166
138305,19383
140307,19169
142309,18792
144313,18594
146315,19204
148318,18808
150321,19069
152323,19085
154323,18839
156324,19239
158326,18850
160326,19095
162329,19106
164333,18750
166337,19240
168340,18905
170340,19120
172341,19752
174341,19592
176345,20659
178347,17323
180350,16551
182350,10562
184350,16347
186354,21847
188356,42134
190356,62924
192359,62982
194361,63052
196362,49323
198366,36015
200366,7503
202369,4757
204373,6360
206374,12836
208377,17560
210378,18921
212382,19073
214384,18857
216388,19137
218389,18170
220389,18754
222393,18744
224396,18466
226400,19121
228404,18909
230408,19892
232408,19834
234411,19412
236413,19226
238413,20060
240413,20481
242413,20281
244417,20143
246420,20761
248422,20612
250425,21921
252426,22108
254426,22272
256428,23103
258430,22869
260431,23029
262434,24054
264435,23710
266438,24373
268438,24863
270441,25369
272445,26050
274448,26482
276450,27500
278452,27797
280453,28675
282456,29060
284459,28796
286468,31040
288471,30868
290472,31800
292472,32723
294473,32343
296473,33615
298475,33319
300475,34022
302477,34299
304478,32873
306482,32995
308485,31305
310485,31287
312488,30344
314488,28613
316490,28094
318492,26888
320494,26476
322497,25046
324498,24674
326501,24991
328505,23843
330506,24186
332508,23768
334512,23579
336514,23971
338518,23385
340519,23279
342521,23033
344521,22840
346523,24194
348526,23746
350529,24270
352530,23859
354534,23576
356537,23972
358539,23659
360540,24258
362544,24090
364544,23881
366547,24138
368549,23383
370552,24244
372555,24078
374555,23986
376558,23960
378560,23122
380561,23129
382565,22680
384568,22671
386571,23191
388573,22651
390577,23207
392579,23032
394579,22878
396582,23225
398583,22682
400583,22251
402585,21951
404587,21800
406590,22462
408592,21717
410594,21766
412596,21948
414600,21987
416603,23219
418604,24468
420605,25827
422605,27361
424608,26486
426610,26234
428613,24148
430613,24613
432616,23667
434620,21768
436620,21165
438621,20337
440623,20300
442623,19865
444626,19679
446629,20297
448631,19970
450631,20203
452631,20297
454634,19831
456635,20306
458635,20022
460635,20170
462635,20273
464636,19778
466640,20310
468643,20068
470643,20125
472644,20946
474647,20782
476647,21760
478650,18321
480653,14953
482655,10890
484656,18096
486660,30199
488663,45128
490663,62894
492663,62950
494664,63269
496666,49269
498666,31205
500666,7654
502666,4693
504670,8069
506673,13574
508673,19015
510673,19968
512673,20229
514675,19823
516675,20023
518675,19396
520678,19715
522680,19954
524683,19447
526683,20251
528684,20299
530685,20787
532688,20976
534688,20204
536691,20333
538692,21407
540692,21305
542693,21413
544693,21177
546697,21965
548701,21894
550702,22792
552703,23558
554704,23458
556705,24202
558708,24236
560710,24238
562713,25696
564713,25190
566713,25746
568714,26567
570716,26728
572716,27589
574754,27999
576757,29317
578759,29551
580761,30655
582764,30855
584764,30554
586764,32927
588767,33036
590770,33908
592773,34883
594773,34690
596776,35597
598778,35509
600781,36372
602784,36384
604787,34703
606789,34918
608790,33417
610792,33169
612796,31548
614799,30542
616800,29815
618802,28132
620802,28003
622804,26306
624807,26215
626807,26629
628810,25212
630812,25620
632816,25070
634820,25170
636823,25329
638825,24798
640828,24748
642828,24307
644829,24467
646863,25367
648866,25473
650868,25701
652869,24813
654870,25384
656871,25169
658874,25385
660878,25736
662881,25157
664882,25801
666886,25290
668888,25150
670888,25724
672890,25193
674893,25813
676894,25136
678894,24681
680894,24669
682895,23361
684896,24155
686899,24210
688899,24009
690912,24267
692912,23736
694913,24337
696916,24050
698919,24094
700920,18923
702921,18019
704921,18478
706923,18652
708923,18480
710924,18510
712926,18008
714927,19011
716928,19428
718928,20839
720928,22057
722931,22324
724934,22469
726935,21391
728938,20306
730941,20667
732941,19051
734941,18510
736944,17650
738945,17075
740946,17038
742946,16224
744948,16855
746950,16887
748952,16701
750955,17017
752958,16703
754958,16975
756961,16927
758962,16693
760965,17036
762967,16706
764971,16950
766972,16952
768975,16609
770975,17031
772977,17451
774979,18046
776979,18449
778979,15039
780982,11670
782985,9215
784989,15525
786991,28457
788993,36757
790993,63006
792996,62995
794996,62906
796999,39849
799000,19653
801003,6442
803006,4033
805009,8561
807012,11370
809014,16042
811017,16890
813020,16723
815022,16956
817026,16553
819028,15984
821029,16659
823031,16428
825031,16603
827032,16906
829036,17032
831040,17752
833043,17423
835043,17230
837043,16971
839045,17961
841045,18271
843049,17841
845052,18391
847055,18416
849055,18089
851059,19488
853062,19490
855062,19843
857066,20277
859069,20039
861070,20707
863072,21066
865076,21271
867078,21331
869081,21891
871085,22683
873087,22496
875090,23727
877092,24560
879094,24404
881098,25742
883099,25336
885103,25670
887106,27046
889109,27357
891112,28287
893114,28478
895115,29123
897115,29293
899117,29440
901117,30151
903118,29875
905121,29286
907124,28531
909125,27690
911127,27327
913130,25685
915131,25688
917133,24472
919134,23194
921136,23197
923138,21706
925140,22103
927143,21935
929143,21064
931147,21395
933149,20922
935152,21380
937153,21208
939155,20947
941155,20713
943157,20264
945158,20632
947159,21262
949161,20988
951164,21397
953167,20944
955167,21355
957171,21214
959173,21060
961175,21409
963179,20905
965181,21519
967184,21226
969186,21134
971188,21411
973191,20912
975191,21341
977191,21254
979193,20516
981196,20681
983197,19520
985199,20157
987200,20144
989201,19984
991205,20333
993207,19886
995210,20277
997213,20199
999216,20008
1001216,19977
1003218,19514
1005218,19910
1007220,20168
1009222,19431
1011224,19585
1013225,19539
1015228,20615
1017230,20933
1019231,22229
1021232,23986
1023234,24199
1025237,24224
1027239,22792
1029239,21676
1031242,22128
1033245,20307
1035246,19888
1037248,19162
1039250,18311
1041254,18474
1043255,17481
1045258,17935
1047261,18078
1049262,17728
1051262,18122
1053263,17784
1055263,18354
1057264,18431
1059267,18057
1061268,18182
1063272,17901
1065275,18021
1067276,18074
1069276,17637
1071279,18149
1073283,18907
1075286,19326
1077289,19531
1079291,16047
1081292,11472
1083296,9568
1085298,16946
1087298,34820
1089300,40130
1091300,62926
1093302,63047
1095306,63072
1097309,41741
1099312,16733
1101314,6793
1103315,4021
1105317,10000
1107319,12137
1109320,17129
1111320,18260
1113323,18211
1115326,18080
1117329,17688
1119330,16978
1121333,17770
1123336,17508
1125339,17678
1127339,18071
1129342,18286
1131346,19180
1133347,18913
1135347,18563
1137351,18442
1139354,19016
1141355,19331
1143358,18979
1145358,19451
1147360,19903
1149362,19474
1151366,20998
1153368,21342
1155368,21551
1157370,21743
1159372,21466
1161373,22141
1163377,22915
1165377,22996
1167378,23183
1169380,23633
1171381,24563
1173384,24393
1175384,25348
1177386,26555
1179388,26191
1181390,27534
1183392,27624
1185393,27514
1187395,29377
1189395,29484
1191398,30516
1193402,31351
1195405,31233
1197407,31586
1199408,31507
1201410,32518
1203413,32310
1205415,30943
1207416,30760
1209420,29791
1211422,29493
1213424,27668
1215427,27395
1217427,26449
1219429,24763
1221429,24978
1223430,23675
1225434,23839
1227434,23907
1229436,22668
1231439,22979
1233439,22469
1235440,22701
1237444,22762
1239447,22282
1241447,22159
1243451,21771
1245455,22101
1247458,23057
1249459,22742
1251462,23192
1253464,22440
1255464,22694
1257467,22751
1259471,22700
1261475,23143
1263479,22814
1265481,23076
1267484,22784
1269485,22312
1271487,23210
1273489,22789
1275493,23105
1277495,22743
1279497,21854
1281498,22134
1283501,21357
1285502,21694
1287503,21668
1289504,21254
1291505,21784
1293509,21441
1295513,21719
1297514,21672
1299516,21341
1301517,21396
1303520,20968
1305521,21305
1307523,21696
1309523,20693
1311526,20995
1313529,21061
1315532,22216
1317533,22596
1319536,24046
1321538,26018
1323540,25967
1325542,25694
1327542,24337
1329546,23469
1331547,23967
1333547,21604
1335549,21265
1337550,20234
1339552,19319
1341554,19563
1343554,18895
1345554,19383
1347558,19482
1349560,19063
1351561,19595
1353561,19276
1355562,19430
1357563,19547
1359564,19069
1361565,19552
1363568,19302
1365571,19413
1367574,19541
1369576,19060
1371578,19625
1373581,20085
1375582,20689
1377583,20539
1379586,16999
1381587,11646
1383588,11523
1385589,18442
1387592,39380
1389592,46829
1391594,63027
1393596,62968
1395596,63025
1397597,44070
1399599,14641
1401600,6897
1403600,4487
1405600,11605
1407603,13999
1409607,18526
1411609,19515
1413611,19298
1415615,19409
1417617,18943
1419620,18426
1421621,19210
1423624,19000
1425627,19069
1427629,19525
1429632,19651
1431635,20350
1433636,20070
1435637,19500
1437641,19732
1439643,20461
1441644,20714
1443646,20529
1445650,20739
1447652,21365
1449655,21087
1451656,22441
1453660,22934
1455661,22914
1457661,23544
1459665,23362
1461669,23953
1463672,24790
1465675,24663
1467678,25091
1469678,25230
1471680,26335
1473683,26426
1475686,27253
1477687,28779
1479689,28502
1481689,29589
1483689,29926
1485693,29751
1487695,31585
1489695,31850
1491695,32775
1493698,33512
1495700,33418
1497701,34320
1499705,34170
1501706,35028
1503706,34904
1505708,33504
1507712,32933
1509714,31867
1511716,31536
1513716,29825
1515719,29154
1517720,28706
1519721,26499
1521724,26479
1523724,25266
1525728,25088
1527728,25324
1529730,24453
1531730,24873
1533732,24460
1535736,24263
1537737,24637
1539740,23996
1541742,23952
1543743,23761
1545745,23771
1547745,25006
1549745,24428
1551745,24845
1553748,24315
1555751,24266
1557753,24783
1559755,24412
1561758,24983
1563760,24839
1565763,24643
1567766,24781
1569766,24171
1571766,24939
1573768,24889
1575770,24431
1577771,24691
1579774,23532
1581777,23685
1583778,23064
1585779,23030
1587780,23594
1589781,23180
1591783,23510
1593783,23493
1595787,23071
1597789,23597
1599792,22847
1601794,21336
1603797,21323
1605800,20925
1607802,21739
1609805,20732
1611808,21018
1613810,21273
1615811,21828
1617814,23081
1619815,24184
1621817,26075
1623819,26287
1625821,25218
1627822,24294
1629823,23602
1631824,23857
1633826,21748
1635827,20736
1637829,20386
1639829,19368
1641830,19346
1643832,19151
1645832,19041
1647833,19568
1649835,19382
1651838,19373
1653841,19544
1655844,19117
1657845,19747
1659846,19368
1661848,19368
1663850,19571
1665853,19056
1667854,19600
1669856,19388
1671858,19506
1673861,20263
1675864,20387
1677867,20008
1679868,17221
1681870,11272
1683871,13063
1685873,18198
1687875,40388
1689876,52769
1691877,62998
1693879,63013
1695882,63161
1697884,43639
1699887,12378
1701890,6358
1703891,4445
1705894,9514
1707896,13265
1709897,18431
1711898,19325
1713901,19476
1715904,19165
1717908,19155
1719909,18496
1721912,19084
1723914,19119
1725916,18733
1727916,19561
1729918,19767
1731918,20218
1733919,20293
1735922,19407
1737922,19598
1739923,20683
1741925,20615
1743926,20634
1745929,20477
1747930,21226
1749932,21162
1751936,22079
1753938,22950
1755940,22652
1757941,23546
1759942,23608
1761944,23624
1763945,24959
1765948,24440
1767951,25000
1769953,25529
1771954,25737
1773957,26516
1775960,26901
1777962,28406
1779963,28807
1781965,29176
1783967,29998
1785971,29663
1787972,31477
1789974,32086
1791975,31849
1793978,33732
1795981,33266
1797981,34058
1799983,34562
1801986,34527
1803987,35190
1805989,33426
1807989,33234
1809989,32376
1811992,31238
1813993,30452
1815994,29085
1817995,28721
1819995,27240
1821998,26526
1823998,25455
1826001,24791
1828002,25409
1830005,24780
1832005,24393
1834006,24673
1836007,24134
1838009,24616
1840009,24519
1842011,23553
1844013,23949
1846014,23433
1848016,24883
1850019,24657
1852023,24577
1854026,24740
1856028,24112
1858028,24601
1860044,24780
1862044,24731
1864047,25018
1866049,24505
1868052,24741
1870054,24408
1872056,24697
1874058,24990
1876058,24431
1878062,24663
1880063,23953
1882064,23649
1884066,23195
1886067,22858
1888070,23554
1890074,23380
1892074,23472
1894075,23562
1896076,23017
1898076,23543
1900078,23404
1902080,21592
1904080,21742
1906082,21245
1908084,22091
1910087,21487
1912090,21106
1914093,21736
1916096,21896
1918097,22838
1920099,24679
1922099,26044
1924102,27259
1926102,25894
1928103,24924
1930103,24148
1932106,23946
1934109,22690
1936110,21271
1938111,20721
1940113,20024
1942114,19676
1944118,19621
1946120,19307
1948121,19960
1950122,19789
1952123,19607
1954125,19984
1956127,19570
1958128,19890
1960130,19846
1962130,19557
1964131,20032
1966131,19573
1968133,19863
1970137,19849
1972140,19565
1974144,20689
1976145,20736
1978146,21325
1980149,17850
1982151,12723
1984154,10837
1986156,18504
1988159,36604
1990160,44832
1992161,62992
1994161,63006
1996164,63056
1998166,45649
2000168,18500
2002171,7250
2004173,4562
2006175,10350
2008175,13301
2010179,19093
2012181,19570
2014185,19936
2016186,19465
2018189,19374
2020189,19065
2022192,19326
2024195,19567
2026198,19091
2028200,19917
2030203,20339
2032207,20375
2034211,20646
2036213,19703
2038216,19962
2040218,21162
2042220,20799
2044223,21017
2046223,20926
2048226,21634
2050229,21602
2052232,22458
2054234,23384
2056236,22988
2058238,23875
2060239,24234
2062241,23814
2064244,25365
2066245,24840
2068246,25334
2070249,26273
2072252,26571
2074255,27253
2076256,27702
2078260,29019
2080264,29214
2082266,29535
2084267,30400
2086270,29906
2088272,32174
2090275,32930
2092279,32807
2094281,34449
2096282,34072
2098282,34772
2100286,35333
2102286,35226
2104290,35863
2106291,34184
2108294,33751
2110294,33117
2112296,31881
2114300,30673
2116301,29441
2118302,29062
2120303,27598
2122306,27277
2124308,26180
2126311,25475
2128312,26057
2130313,25132
2132313,24832
2134313,25068
2136314,24404
2138314,25026
2140317,24829
2142318,24041
2144320,24314
2146322,23701
2148323,25212
2150323,25182
2152325,24972
2154328,25050
2156330,24415
2158331,24983
2160335,25212
2162336,25014
2164338,25435
2166339,24833
2168341,25042
2170342,24975
2172342,24907
2174344,25425
2176344,24885
2178347,24975
2180351,24365
2182353,23796
2184353,23606
2186355,23336
2188358,23895
2190361,23791
2192364,23532
2194367,23941
2196370,23380
2198371,23929
2200373,23773
2202375,18834
2204377,18880
2206378,18374
2208379,19142
2210379,18788
2212379,18578
2214379,18851
2216383,19296
2218385,19990
2220387,21551
2222387,22732
2224390,23496
2226392,22354
2228394,21311
2230397,20897
2232399,20655
2234400,19430
2236403,18437
2238405,18113
2240409,17443
2242409,17129
2244411,17239
2246412,16945
2248412,17283
2250412,17275
2252414,16977
2254418,17368
2256420,17121
2258421,17277
2260421,17339
2262423,16940
2264426,17393
2266428,17139
2268429,17275
2270431,17361
2272433,16946
2274433,18085
2276434,18390
2278434,18566
2280434,15636
2282438,10392
2284441,9948
2286442,16279
2288445,33382
2290448,39707
2292450,62990
2294453,63093
2296455,62968
2298456,38607
2300459,12593
2302462,6165
2304465,4006
2306465,9972
2308465,11993
2310468,16778
2312468,16831
2314471,17356
2316471,17147
2318473,16663
2320476,16710
2322479,16594
2324481,17004
2326482,16911
2328483,17159
2330487,18005
2332490,17665
2334493,18123
2336495,17340
2338497,17292
2340497,18772
2342501,18162
2344503,18520
2346503,18673
2348503,18492
2350505,18953
2352507,19551
2354510,20422
2356510,20559
2358511,20238
2360511,20978
2362514,20805
2364517,22027
2366518,22030
2368518,21744
2370519,22750
2372521,23137
2374523,23557
2376524,24286
2378524,24543
2380525,25442
2382526,25772
2384529,26119
2386529,26605
2388530,27239
2390531,28509
2392533,28541
2394536,29324
2396540,30034
2398542,29467
2400543,30501
2402546,30412
2404549,30379
2406550,30089
2408551,28232
2410553,28515
2412554,27690
2414556,26245
2416556,26012
2418556,24813
2420558,24244
2422559,23445
2424562,22330
2426563,22428
2428566,21862
2430569,22163
2432570,21525
2434573,21545
2436574,21730
2438574,21200
2440576,21588
2442577,20840
2444580,20801
2446582,21210
2448584,21590
2450584,22079
2452585,21955
2454588,21431
2456590,21804
2458592,21342
2460595,22089
2462595,21972
2464597,21782
2466600,22141
2468600,21334
2470601,21866
2472603,22001
2474604,21761
2476606,22055
2478608,21334
2480610,21064
2482611,20893
2484615,20339
2486619,20707
2488619,20249
2490620,20621
2492621,20563
2494621,20207
2496624,20675
2498627,20277
2500629,20340
2502631,19535
2504634,19190
2506636,19571
2508636,19296
2510638,19166
2512639,19197
2514641,19077
2516643,20113
2518644,20275
2520647,22055
2522650,23607
2524653,23242
2526656,23239
2528656,21326
2530657,21220
2532659,21391
2534659,19405
2536661,19314
2538661,18295
2540662,17728
2542663,17691
2544666,16943
2546667,17711
2548669,17535
2550671,17598
2552674,17717
2554677,17299
2556677,17782
2558677,17586
2560677,17528
2562677,17748
2564678,17343
2566679,17690
2568680,17662
2570684,17465
2572686,17989
2574687,18141
2576687,19018
2578687,18521
2580689,15338
2582691,10687
2584694,10649
2586695,16778
2588696,35604
2590698,47374
2592701,62942
2594705,63032
2596707,62936
2598709,39374
2600709,10675
2602713,5529
2604717,3998
2606719,10919
2608721,13628
2610723,16979
2612726,17631
2614728,17336
2616728,17690
2618729,17058
2620730,16764
2622731,17383
2624734,17094
2626735,17375
2628735,17673
2630738,17945
2632738,18512
2634738,18318
2636740,17710
2638741,18133
2640744,18698
2642748,18895
2644750,18756
2646752,18969
2648754,19520
2650758,19342
2652761,20299
2654761,20741
2656762,20746
2658764,21403
2660766,20963
2662767,21541
2672128,23495
2674128,23871
2676128,24313
2678130,25704
2680130,25817
2682131,26498
2684135,27090
2686136,26568
2688139,28596
2690142,28810
2692144,29134
2694145,30361
2696148,30005
2698150,30851
2700153,30830
2702156,31122
2704159,31455
2706162,30183
2708163,30205
2710164,29071
2712166,28435
2714168,27381
2716171,26240
2718171,25880
2720174,24472
2722174,24114
2724175,23277
2726177,22663
2728179,23235
2730182,22277
2732183,22087
2734185,22046
2736187,21537
2738187,22107
2740191,21825
2742191,21181
2744195,21342
2746198,20823
2748200,22424
2750203,22205
2752205,22217
2754206,22113
2756206,21595
2758207,22081
2760207,22235
2762209,22080
2764212,22404
2766213,21961
2768215,22204
2770217,21908
2772219,22009
2774223,22480
2776225,22007
2778228,22079
2780228,21501
2782229,20937
2784232,20988
2786234,20828
2788235,21275
2790235,21233
2792235,20854
2794238,21390
2796241,20941
2798243,21315
2800245,21235
2802246,20579
2804246,21065
2806246,20705
2808250,21208
2810251,20863
2812253,20174
2814255,20975
2816257,21427
2818259,21943
2820262,23818
2822265,24807
2824267,26105
2826269,25151
2828271,23953
2830272,23189
2832273,22638
2834273,21874
2836275,20771
2838279,19916
2840280,19426
2842281,18740
2844281,18883
2846283,18828
2848284,19003
2850284,19244
2852287,18722
2854289,19159
2856291,19022
2858294,18939
2860296,19190
2862296,18736
2864296,19171
2866299,19061
2868302,18917
2870305,19210
2872308,18830
2874310,19863
2876311,20275
2878314,20363
2880314,17189
2882318,12269
2884318,10444
2886321,17983
2888325,34710
2890327,43061
2892330,63035
2894332,62994
2896336,62938
2898339,43527
2900341,19334
2902342,6853
2904345,4553
2906347,10058
2908349,12882
2910350,18516
2912354,18600
2914354,19232
2916356,18953
2918359,18576
2920361,18482
2922365,18366
2924368,18866
2926370,18573
2928371,19013
2930373,19687
2932377,19439
2934379,19976
2936383,19127
2938385,19050
2940389,20519
2942393,19936
2944396,20307
2946397,20328
2948398,20742
2950401,20996
2952401,21513
2954401,22643
2956403,22584
2958406,22992
2960406,23202
2962406,22631
2964408,24156
2966410,23993
2968412,24002
2970415,25315
2972419,25248
2974422,26149
2976424,26764
2978425,27745
2980428,28238
2982428,28351
2984431,29318
2986432,29009
2988435,30894
2990437,31687
2992438,31247
2994439,33045
2996440,32905
2998441,33077
3000445,34013
3002448,33629
3004448,34561
3006452,32815
3008454,32224
3010457,31783
3012457,30680
3014460,29606
3016461,28445
3018465,27947
3020466,26628
3022467,26061
3024470,25078
3026473,24411
3028475,25018
3030478,24114
3032479,23725
3034481,24063
3036482,23394
3038483,23938
3040487,23771
3042489,22922
3044491,23239
3046491,22650
3048494,24237
3050494,24132
3052495,23797
3054495,23967
3056497,23476
3058499,23881
3060499,24161
3062501,23796
3064501,24337
3066501,23887
3068504,23945
3070504,23893
3072504,23725
3074504,24305
3076507,23911
3078508,23827
3080508,23355
3082511,22634
3084511,22812
3086514,22800
3088516,23007
3090518,23156
3092521,22632
3094524,23239
3096526,22816
3098529,23049
3100529,23159
3102530,17901
3104534,18109
3106536,17837
3108539,18086
3110542,17811
3112545,17344
3114547,18143
3116550,18414
3118551,18828
3120553,20533
3122553,21355
3124553,22122
3126553,21694
3128553,20299
3130555,19934
3132555,19434
3134558,18630
3136561,17931
3138562,16930
3140564,16751
3142568,16148
3144568,15946
3146571,16069
3148573,16113
3150576,16285
3152578,15885
3154582,16301
3156583,16537
3158587,16437
3160589,16681
3162592,15929
3164592,16279
3166594,16194
3168595,16091
3170597,16301
3172600,15966
3174603,16939
3176604,17417
3178607,17427
3180607,14584
3182609,9972
3184612,9378
3186614,15266
3188616,31066
3190618,36773
3192618,63067
3194621,62951
3196622,62996
3198625,36171
3200627,13259
3202629,5803
3204629,3993
3206630,9381
3208630,11110
3210632,15779
3212636,16104
3214638,16615
3216639,16187
3218641,15451
3220644,15589
3222647,15525
3224651,15886
3226654,15892
3228658,16086
3230661,16862
3232664,16640
3234667,16980
3236668,16611
3238670,16371
3240670,17732
3242672,17086
3244672,17339
3246672,17642
3248672,17636
3250673,18201
3252676,18544
3254679,19001
3256681,19159
3258683,19074
3260684,19907
3262687,19774
3264689,20481
3266689,20664
3268689,20250
3270692,21747
3272695,21763
3274699,21979
3276701,22746
3278703,23385
3280706,24343
3282708,24329
3284709,24707
3286710,25127
3288712,25799
3290715,27107
3292716,26956
3294718,27699
3296722,28212
3298723,27763
3300723,29067
3302725,28687
3304728,28808
3306730,28251
3308731,26822
3310733,27246
3312733,26143
3314735,24823
3316736,24513
3318737,23381
3320739,22788
3322740,21989
3324742,21349
3326746,21322
3328748,20755
3330748,20709
3332751,20330
3334754,20585
3336756,20574
3338757,20158
3340761,20623
3342762,19615
3344763,19868
3346765,19926
3348765,20194
3350767,20693
3352769,20326
3354771,20580
3356773,20567
3358774,20261
3360777,20703
3362778,20272
3364781,20636
3366784,20565
3368786,20289
3370788,20680
3372789,20237
3374792,20637
3376794,20557
3378795,20271
3380795,20085
3382798,19432
3384801,19215
3386804,19398
3388805,19227
3390806,19607
3392809,19191
3394811,19493
3396811,19454
3398811,19117
3400814,19555
3402817,18556
3404819,18789
3406822,18770
3408823,18824
3410825,18905
3412827,18466
3414830,18796
3416832,19629
3418834,19871
3420834,21811
3422835,22901
3424836,23335
3426839,22686
3428840,20960
3430840,21046
3432842,20516
3434844,19196
3436846,18726
3438847,17842
3440851,17530
3442851,16988
3444855,17032
3446855,17205
3448858,17064
3450858,17415
3452861,17028
3454865,17363
3456868,17291
3458870,17071
3460870,17371
3462874,17036
3464877,17325
3466879,17254
3468881,17068
3470883,17441
3472886,17160
3474889,18077
3476889,18641
3478889,17897
3480893,15629
3482894,10042
3484895,11067
3486898,16423
3488901,34771
3490903,44860
3492904,63042
3494905,63039
3496907,63050
3498911,37967
3500912,11635
3502915,5768
3504918,4015
3506918,10546
3508920,12784
3510920,16892
3512921,16887
3514925,17329
3516927,17241
3518930,16515
3520933,16754
3522936,16644
3524938,16984
3526939,16954
3528940,17070
3530942,18001
3532943,17772
3534944,18103
3536944,17419
3538946,17381
3540950,18809
3542953,18156
3544953,18524
3546955,18737
3548958,18504
3550958,19145
3552958,19615
3554958,20503
3556960,20597
3558963,20177
3560963,21011
3562963,21080
3564967,21972
3566968,22063
3568970,21734
3570973,22820
3572974,23111
3574976,23564
3576977,24236
3578979,24638
3580979,25569
3582979,25838
3584982,26083
3586985,26946
3588987,27293
3590987,28577
3592988,28718
3594989,29466
3596991,30072
3598993,29573
3600996,30518
3602997,30407
3605000,30471
3607002,30100
3609003,28256
3611005,28497
3613008,27576
3615009,26217
3617011,25888
3619014,24868
3621018,24148
3623021,23015
3625024,22437
3627027,22356
3629028,21888
3631031,22135
3633033,21366
3635036,21760
3637037,21652
3639040,21394
3641041,21561
3643042,20612
3645043,20938
3647043,21263
3649047,21674
3651047,22136
3653050,21634
3655054,21595
3657056,21696
3659059,21491
3661060,22147
3663061,21750
3665061,21905
3667062,22052
3669063,21313
3671066,21906
3673069,21768
3675072,22034
3677075,22060
3679079,21383
3681083,21180
3683085,20509
3685089,20635
3687091,20541
3689094,20243
3691097,20729
3693100,20174
3695103,20695
3697104,20515
3699104,20230
3701106,20479
3703109,19578
3705111,19882
3707112,19975
3709113,19897
3711115,19723
3713117,19330
3715119,19833
3717121,20583
3719123,20859
3721125,22520
3723125,24114
3725125,24159
3727128,23947
3729130,21838
3731131,22163
3733131,21918
3735135,20120
3737135,19591
3739135,18402
3741138,18238
3743140,17732
3745141,17595
3747144,18081
3749145,17655
3751146,18117
3753146,17953
3755149,17941
3757150,18061
3759153,17674
3761153,18125
3763157,17993
3765157,17914
3767159,18180
3769160,17748
3771164,18069
3773166,18198
3775167,18574
3777168,19500
3779169,17871
3781170,15978
3783174,10268
3785176,12501
3787179,17260
3789183,37365
3791185,52306
3793188,62910
3795191,63040
3797193,61193
3799195,39358
3801198,10686
3803198,5638
3805198,3918
3807200,11324
3809202,11949
3811205,16291
3813209,17520
3815211,17917
3817213,18098
3819215,17684
3821215,17407
3823218,17476
3825218,17552
3827221,17725
3829223,17617
3831223,18145
3833227,18704
3835230,18574
3837232,18865
3839235,17796
3841237,19145
3843237,19446
3845241,18859
3847243,19514
3849244,19187
3851246,19932
3853247,20406
3855250,20254
3857252,21427
3859253,21302
3861257,21712
3863260,22032
3865263,22202
3867266,22903
3869267,22438
3871270,23624
3873273,23949
3875277,24175
3877280,25207
3879281,24877
3881284,26757
3883288,26984
3885292,26740
3887294,27616
3889297,28112
3891299,29045
3893299,29922
3895303,30468
3897306,31264
3899309,30559
3901311,31716
3903311,31758
3905311,31689
3907312,31453
3909313,30461
3911316,30114
3913318,29104
3915321,28630
3917324,27209
3919326,26038
3921329,26424
3923330,24442
3925332,23557
3927332,23565
3929333,23013
3931334,22971
3933337,22769
3935337,22168
3937337,22536
3939339,21941
3941341,22457
3943344,22042
3945346,21829
3947349,22154
3949351,22153
3951353,22807
3953354,22665
3955356,22247
3957359,22468
3959362,21960
3961364,22758
3963367,22644
3965370,22520
3967370,22854
3969372,22256
3971376,22462
3973379,22514
3975382,22615
3977384,22848
3979386,22031
3981387,22477
3983389,21963
3985392,21327
3987394,21419
3989397,21199
3991399,21759
3993402,21569
3995402,21545
3997404,21769
3999404,21180
4001404,21693
4003406,20744
4005408,20437
4007411,20663
4009415,20454
4011418,20992
4013418,20529
4015421,20380
4017424,20780
4019426,21210
4021426,23456
4023428,24028
4025431,25254
4027432,25185
4029434,24256
4031437,23221
4033438,23043
4035441,22716
4037441,20757
4039441,19766
4041443,19884
4043446,19103
4045449,18342
4047451,18575
4049453,18449
4051455,18802
4053458,18746
4055461,18532
4057463,19177
4059464,18861
4061468,19202
4063468,18850
4065470,18414
4067470,18860
4069470,18526
4071472,18682
4073474,18767
4075477,19244
4077479,20029
4079481,20339
4081481,17639
4083482,16118
4085482,10027
4087484,16692
4089484,20962
4091484,41425
4093484,63073
4095487,62946
4097490,63079
4099492,48220
4101496,35869
4103499,7465
4105502,4846
4107503,5434
4109504,12512
4111505,17399
4113508,18459
4115511,18820
4117514,18915
4119516,18394
4121516,18127
4123519,18358
4125522,18077
4127522,18495
4129524,18467
4131524,19031
4133525,19823
4135529,19523
4137531,19792
4139533,18916
4141536,20314
4143539,20585
4145542,19799
4147545,20639
4149548,20234
4151549,20559
4153550,21561
4155553,21361
4157556,22503
4159559,22436
4161559,22704
4163562,23119
4165563,23556
4167565,24296
4169565,23936
4171568,24721
4173570,25210
4175574,25128
4177577,26748
4179577,26642
4181578,27711
4183581,28485
4185584,28072
4187584,29075
4189584,30107
4191584,30816
4193586,31505
4195588,31841
4197590,32797
4199593,32497
4201597,33529
4203597,33713
4205600,33365
4207603,33213
4209604,31861
4211607,31582
4213610,30765
4215611,30106
4217611,28655
4219615,27395
4221616,27519
4223620,25860
4225623,24628
4227624,24634
4229626,24054
4231627,24377
4233630,23905
4235631,23750
4237635,23913
4239635,23380
4241636,23969
4243637,23007
4245638,23059
4247641,23177
4249643,23561
4251643,24226
4253646,23978
4255646,23758
4257649,23883
4259652,23373
4261653,24276
4263657,23955
4265659,24127
4267661,24236
4269662,23628
4271664,23952
4273665,23961
4275668,24165
4277670,24235
4279671,23444
4281673,23806
4283677,22831
4285679,22378
4287681,22540
4289683,22348
4291685,22887
4293686,22452
4295688,22770
4297688,22810
4299689,22492
4301693,22894
4303697,20028
4305700,19885
4307703,19847
4309704,19849
4311707,20192
4313710,19226
4315712,19823
4317712,20096
4319715,20189
4321715,22284
4323716,22866
4325716,24431
4327717,23962
4329718,22723
4331718,22199
4333722,21846
4335725,21527
4337725,19940
4339729,18582
4341729,18664
4343733,17883
4345733,17748
4347734,17770
4349735,17690
4351738,18141
4353741,17834
4355744,18042
4357746,18041
4359748,17681
4361751,18134
4363751,17867
4365751,18012
4367753,18081
4369753,17686
4371754,18138
4373756,17927
4375760,18598
4377762,19032
4379762,19070
4381766,16343
4383768,13500
4385770,9749
4387771,16483
4389774,24813
4391777,39809
4393780,62944
4395782,63055
4397785,63018
4399787,43160
4401787,29733
4403788,7106
4405790,4241
4407791,6727
4409792,11936
4411793,17112
4413797,17590
4415799,18033
4417802,18058
4419804,17455
4421805,17400
4423807,17484
4425811,17680
4427814,17712
4429815,17680
4431816,18456
4433819,18575
4435821,18847
4437822,18621
4439824,17697
4441826,19394
4443830,19198
4445833,19062
4447836,19499
4449836,19186
4451836,19988
4453837,20395
4455840,20767
4457843,21367
4459846,21193
4461848,21922
4463852,21854
4465855,22520
4467855,22852
4469855,22286
4471859,23863
4473860,23951
4475861,24397
4477861,25345
4479865,25300
4481867,26818
4483867,26976
4485869,26914
4487871,27621
4489872,28279
4491874,29442
4493874,29886
4495877,30590
4497879,31247
4499880,30560
4501883,31797
4503883,31921
4505883,31744
4507885,31318
4509887,30192
4511890,30120
4513894,28917
4515896,27923
4517898,27255
4519900,25920
4521902,25677
4523906,24516
4525908,23405
4527908,23596
4529908,23019
4531910,22895
4533910,22457
4535914,22217
4537917,22498
4539919,21931
4541920,22500
4543922,21991
4545923,21827
4547926,22183
4549928,22231
4551932,22827
4553932,22653
4555932,22205
4557934,22481
4559937,21968
4561939,22826
4563942,22654
4565945,22553
4567947,22842
4569949,22109
4571950,22513
4573953,22618
4575953,22553
4577954,22864
4579956,21995
4581958,22278
4583958,21963
4585958,21086
4587960,21604
4589963,21257
4591963,21734
4593963,21653
4595966,21461
4597968,21781
4599971,21309
4601972,21704
4603975,19046
4605978,18552
4607980,18879
4609981,18715
4611983,18965
4613986,18722
4615989,18469
4617991,19434
4619992,19484
4621993,21557
4623995,22520
4625997,23133
4627997,22959
4630001,21435
4632004,20995
4634004,20910
4636005,19876
4638006,18888
4640007,17836
4642007,17762
4644009,17301
4646011,16753
4648013,17195
4650015,17058
4652015,17325
4654019,17297
4656021,17020
4658024,17379
4660047,16944
4662051,17379
4664053,17231
4666055,17141
4668056,17368
4670058,16965
4672058,17341
4674062,17171
4676065,17825
4678066,18470
4680069,18422
4682071,15872
4684073,12191
4686074,9280
4688074,16114
4690075,27767
4692076,38255
4694079,63033
4696081,62880
4698081,63042
4700083,40113
4702085,21430
4704088,6440
4706092,4163
4708093,7953
4710094,11481
4712094,16576
4714094,17033
4716096,17180
4718098,17397
4720100,16615
4722100,16648
4724103,16895
4726103,16781
4728107,17052
4730109,17006
4732109,17788
4734110,17992
4736113,17823
4738116,17717
4740118,17035
4742119,18682
4744119,18617
4746120,18029
4748121,18829
4750122,18550
4752123,18764
4754123,19996
4756126,19841
4758126,20659
4760128,20397
4762128,20668
4764131,20942
4766133,21515
4768134,22132
4770134,21929
4772138,22660
4774140,23275
4776143,23001
4778145,24251
4780148,24613
4782150,25091
4784151,26026
4786151,25636
4788155,26494
4790156,27555
4792159,28061
4794162,28623
4796162,28987
4798165,29785
4800165,29758
4802167,30165
4804169,30710
4806171,30109
4808171,30213
4810174,28811
4812176,28389
4814177,27975
4816181,26356
4818184,26149
4820186,25114
4822187,24418
4824190,23933
4826191,22032
4828194,22536
4830197,22183
4832199,22015
4834199,21856
4836203,21253
4838207,21826
4840210,21415
4842214,21668
4844216,21028
4846219,20535
4848220,21051
4850221,21706
4852221,22044
4854221,22138
4856224,21237
4858227,21785
4860228,21502
4862231,21988
4864231,22105
4866233,21600
4868236,22164
4870239,21618
4872240,21618
4874243,21945
4876247,21610
4878249,22189
4880251,21511
4882255,21160
4884257,21008
4886261,20156
4888264,20685
4890264,20418
4892266,20453
4894267,20599
4896268,20068
4898269,20657
4900269,20434
4902272,20509
4904276,19950
4906278,19454
4908280,19954
4910284,20136
4912287,19646
4914290,19569
4916292,19423
4918293,20341
4920296,20461
4922298,22057
4924300,23850
4926303,24034
4928306,23998
4930306,22569
4932306,21994
4934306,22126
4936307,20168
4938308,19990
4940311,18716
4942313,18235
4944317,18172
4946318,17391
4948320,17973
4950321,17954
4952325,17915
4954328,18113
4956330,17754
4958332,18068
4960333,18017
4962333,17861
4964334,18145
4966337,17762
4968339,18078
4970341,18021
4972344,17795
4974344,18171
4976346,18432
4978349,19342
4980349,19495
4982353,15864
4984354,11942
4986358,9553
4988358,16894
4990361,31682
4992362,39300
4994366,62998
4996368,63039
4998369,63063
5000369,41634
5002372,16331
5004375,6783
5006378,4061
5008381,9128
5010383,12057
5012383,17216
5014383,17985
5016385,17697
5018388,18187
5020389,17510
5022393,17148
5024396,17738
5026398,17409
5028399,17732
5030399,18035
5032401,18254
5034404,18838
5036407,18512
5038408,18279
5040410,18071
5042411,19111
5044413,19327
5046417,18853
5048420,19443
5050423,19718
5052426,19483
5054427,20633
5056429,20775
5058431,21252
5060433,21639
5062436,21499
5064436,22157
5066439,22428
5068440,22708
5070440,22779
5072441,23340
5074444,24495
5076447,24284
5078449,25336
5080450,26442
5082451,26169
5084451,27245
5086454,27163
5088458,27432
5090461,28864
5092462,29083
5094464,30123
5096464,30785
5098467,30986
5100469,31187
5102470,31215
5104473,32228
5106475,31877
5108477,31078
5110477,30353
5112477,29348
5114480,29142
5116480,27231
5118481,27125
5120481,26454
5122483,24608
5124485,24607
5126487,23307
5128488,23401
5130488,23522
5132492,22369
5134495,22639
5136497,22149
5138498,22383
5140499,22421
5142501,21978
5144503,22179
5146504,21818
5148506,22035
5150508,22742
5152510,22324
5154512,22860
5156514,22149
5158516,22413
5160517,22462
5162520,22284
5164520,22862
5166522,22506
5168525,22733
5170528,22514
5172529,21975
5174529,22847
5176531,22488
5178534,22722
5180536,22451
5182538,21714
5184538,22181
5186540,21141
5188543,21575
5190543,21740
5192546,21253
5194548,21810
5196551,21413
5198551,21606
5200551,21715
5202554,21200
5204558,20045
5206558,19721
5208558,19763
5210559,20263
5212562,19325
5214563,19597
5216565,19753
5218565,20366
5220565,21034
5222567,22217
5224570,24120
5226573,24477
5228576,24026
5230576,22714
5232577,21651
5234581,22111
5236584,20269
5238585,19660
5240586,19231
5242587,18224
5244587,18506
5246590,17678
5248590,17781
5250590,18160
5252590,17778
5254594,18081
5256596,18022
5258599,18158
5260603,18486
5262606,18137
5264607,18130
5266608,18013
5268610,17778
5270614,18169
5272616,17762
5274616,18182
5276619,19051
5278622,19113
5280623,19542
5282626,16136
5284629,11492
5286630,9644
5288631,16703
5290633,34424
5292634,42151
5294634,63003
5296638,63108
5298640,63036
5300640,41645
5302641,13905
5304644,6482
5306647,3977
5308650,10227
5310650,12797
5312653,17215
5314657,18222
5316659,18395
5318661,17870
5320663,17606
5322665,17027
5324668,17707
5326671,17632
5328673,17347
5330675,18099
5332675,18636
5334677,19177
5336680,19147
5338680,18218
5340681,18597
5342683,19216
5344686,19190
5346689,19182
5348691,19089
5350693,19922
5352694,19656
5354697,20849
5356700,21523
5358700,21230
5360702,21760
5362704,21744
5364705,21980
5366705,23157
5368708,22636
5370710,23287
5372713,23961
5374716,24394
5376717,24723
5378720,25167
5380720,26674
5382721,26686
5384725,27379
5386728,27854
5388728,27341
5390729,29446
5392732,29844
5394733,30196
5396734,31531
5398737,30878
5400739,31572
5402740,31917
5404741,32284
5406744,32530
5408746,30912
5410750,30741
5412750,30007
5414753,29232
5416755,27848
5418756,26807
5420758,26546
5422761,24791
5424764,24921
5426767,23836
5428768,23500
5430771,23681
5432775,22761
5434778,22838
5436779,22724
5438782,22394
5440785,22857
5442788,22296
5444788,22103
5446789,22035
5448790,21906
5450792,23200
5452793,22806
5454793,23103
5456796,22665
5458798,22342
5460798,22924
5462802,22864
5464805,23097
5466806,23095
5468806,22682
5470808,22928
5472808,22534
5474810,23055
5476814,23171
5478817,22593
5480818,22902
5482818,21912
5484820,21941
5486823,21730
5488824,21249
5490825,21760
5492828,21500
5494830,21629
5496830,21712
5498834,21209
5500837,21773
5502839,21034
5504842,18498
5506845,18458
5508847,18101
5510850,18851
5512851,18342
5514854,18334
5516856,18486
5518858,18843
5520860,19723
5522863,21056
5524866,22352
5526867,22770
5528869,21976
5530869,21016
5532873,20409
5534875,20514
5536879,18802
5538879,17933
5540882,17806
5542883,16874
5544884,16834
5546886,16649
5548888,16571
5550888,17055
5552891,16863
5554893,16826
5556895,17009
5558898,16691
5560899,17046
5562902,16865
5564904,16858
5566906,17032
5568908,16620
5570911,17011
5572914,16936
5574914,17006
5576916,17762
5578920,17941
5580923,17647
5582924,15100
5584927,10376
5586929,10122
5588930,15741
5590934,33755
5592937,45527
5594937,63031
5596939,62989
5598942,63063
5600943,38062
5602947,10864
5604951,5659
5606952,3978
5608954,10313
5610957,12950
5612959,16323
5614962,16910
5616964,16980
5618965,16610
5620965,16455
5622965,16123
5624967,16559
5626969,16669
5628969,16295
5630972,17016
5632974,17392
5634976,17598
5636979,17722
5638982,16693
5640983,17408
5642985,18299
5644988,17997
5646989,18208
5648991,18076
5650992,18500
5652993,18690
5654995,19324
5656996,19898
5658997,19595
5660997,20287
5662999,20448
5665002,20485
5667004,21441
5669005,20960
5671008,21582
5673012,22328
5675014,22424
5677014,23097
5679016,23474
5681019,24761
5683022,25108
5685022,25244
5687022,25768
5689025,25744
5691025,27196
5693027,28056
5695029,27907
5697029,29059
5699032,28753
5701032,29444
5703033,30000
5705034,29412
5707036,29990
5709036,28917
5711039,28354
5713042,27839
5715045,26706
5717046,25948
5719049,24859
5721049,24637
5723052,23221
5725055,22632
5727057,22173
5729057,21708
5731058,21901
5733062,21293
5735066,21013
5737068,21399
5739070,20960
5741070,21335
5743074,21020
5745077,20423
5747080,20748
5749083,20449
5751085,21359
5753089,21208
5755091,21044
5757091,21401
5759095,20982
5761095,21349
5763095,21245
5765096,20986
5767098,21377
5769100,20994
5771102,21337
5773104,21305
5775105,20912
5777105,21426
5779106,21052
5781107,21293
5783110,20642
5785111,19955
5787114,20014
5789115,19958
5791115,20215
5793118,20218
5795121,19874
5797122,20349
5799122,20053
5801125,20155
5803125,19709
5805128,18075
5807130,18464
5809131,18387
5811131,18700
5813133,18141
5815134,17804
5817134,18510
5819135,19021
5821138,19318
5823141,20959
5825145,22023
5827148,22689
5829152,21931
5831155,20371
5833155,20314
5835155,19819
5837157,18659
5839158,17883
5841158,17247
5843161,17080
5845163,16331
5847164,16341
5849165,16526
5851165,16443
5853167,16689
5855171,16337
5857172,16730
5859173,16894
5861177,16765
5863179,16978
5865181,16364
5867183,16583
5869184,16539
5871186,16400
5873190,16691
5875192,16611
5877195,17343
5879195,17933
5881197,16531
5883198,14885
5885201,9388
5887202,11878
5889203,15798
5891204,34413
5893207,49268
5895207,63027
5897209,63035
5899210,59043
5901210,36562
5903213,9781
5905217,5304
5907217,3981
5909219,10655
5911222,13182
5913222,16264
5915222,16064
5917223,16815
5919224,17008
5921226,16304
5923228,16051
5925229,15742
5927231,16197
5929233,16291
5931237,15951
5933239,16658
5935243,17070
5937243,17248
5939246,17419
5941246,16681
5943249,17104
5945253,17914
5947254,17684
5949255,17791
5951258,17624
5953262,18466
5955264,18402
5957266,19021
5959267,19819
5961269,19464
5963271,19940
5965273,20084
5967275,20265
5969278,21399
5971279,20899
5973280,21580
5975282,21934
5977285,22371
5979289,22920
5981291,23023
5983294,24505
5985298,24473
5987301,25114
5989302,25392
5991302,24985
5993303,26802
5995306,27548
5997309,27702
5999311,28653
6001313,28322
6003316,29184
6005319,29504
6007319,29353
6009319,29671
6011322,28392
6013325,28083
6015327,27556
6017328,26560
6019329,25677
6021331,24663
6023333,24312
6025336,22806
6027337,22390
6029339,21776
6031340,21237
6033343,21646
6035346,21160
6037349,20840
6039352,21036
6041355,20511
6043355,21012
6045355,20603
6047358,20082
6049359,20312
6051363,19988
6053367,21375
6055371,21215
6057373,21005
6059376,21044
6061380,20486
6063384,21123
6065387,21101
6067390,21188
6069392,21377
6071392,20867
6073394,21104
6075395,20921
6077397,21174
6079398,21389
6081399,20754
6083402,21045
6085402,20277
6087405,20073
6089406,19958
6091408,19454
6093408,19953
6095412,19785
6097412,19687
6099415,19968
6101417,19490
6103417,19961
6105418,19573
6107420,17951
6109422,18111
6111425,17705
6113425,18152
6115428,17637
6117430,17624
6119431,18127
6121434,18280
6123437,19210
6125440,20491
6127443,21608
6129444,22021
6131446,21273
6133446,20163
6135449,19828
6137449,19647
6139452,18372
6141456,17580
6143456,17042
6145460,16594
6147461,16228
6149461,15891
6151462,15910
6153465,16265
6155466,16216
6157466,15998
6159468,16382
6161468,16391
6163468,16603
6165470,16496
6167474,16082
6169475,16299
6171477,16097
6173477,16235
6175477,16265
6177478,15988
6179479,16974
6181481,17448
6183483,16901
6185486,14534
6187489,9491
6189492,10765
6191494,15256
6193494,32603
6195494,42870
6197496,62950
6199498,62960
6201498,62248
6203501,35914
6205503,9112
6207505,5404
6209507,3965
6211510,9850
6213513,12138
6215516,15786
6217518,16113
6219520,16573
6221523,16153
6223526,15551
6225529,15646
6227533,15499
6229535,15968
6231539,15890
6233539,16153
6235543,16935
6237545,16572
6239545,17034
6241547,16534
6243549,16924
6245551,17708
6247555,17007
6249559,17528
6251561,17583
6253563,17906
6255567,18346
6257567,18346
6259567,19078
6261567,19106
6263569,19278
6265570,19908
6267572,19715
6269574,20639
6271577,20571
6273579,20727
6275580,21780
6277581,21718
6279581,22347
6281585,22723
6283587,23679
6285590,24527
6287592,24174
6289593,24889
6291595,25360
6293597,25944
6295597,27176
6297599,26989
6299601,27851
6301602,28126
6303606,28061
6305608,29077
6307610,28441
6309612,28718
6311614,28113
6313617,26878
6315620,26932
6317621,25901
6319624,24800
6321627,24232
6323627,23667
6325629,22662
6327631,21566
6329631,21396
6331634,21208
6333635,20871
6335637,20725
6337638,20217
6339640,20615
6341641,20541
6343644,20363
6345647,20289
6347650,19478
6349651,19957
6351653,20209
6353656,20414
6355659,20683
6357662,20166
6359665,20705
6361666,20443
6363668,20407
6365669,20647
6367672,20191
6369672,20633
6371675,20493
6373677,20346
6375680,20662
6377681,20182
6379682,20663
6381682,20508
6383684,20381
6385688,20012
6387691,19059
6389694,19194
6391694,19375
6393695,19234
6395698,19607
6397698,19155
6399701,19524
6401703,19448
6403703,19197
6405706,18684
6407706,17413
6409707,17700
6411711,17764
6413715,17785
6415718,17493
6417719,17207
6419723,17720
6421727,18319
6423727,18820
6425727,20297
6427727,21233
6429729,21483
6431732,21310
6433736,19422
6435739,19599
6437739,19236
6439740,17858
6441742,17434
6443746,16770
6445749,16372
6447753,15842
6449756,15930
6451756,16157
6453760,16028
6455761,16335
6457764,16004
6459766,16273
6461768,16227
6463771,16008
6465773,16312
6467773,16006
6469774,16255
6471778,16211
6473778,16014
6475781,16321
6477784,16416
6479788,16955
6481788,17244
6483790,15985
6485790,14527
6487792,9334
6489795,11753
6491798,15421
6493798,33105
6495800,50502
6497803,63027
6499806,63043
6501807,55618
6503811,35085
6505813,8072
6507815,4770
6509818,3977
6511819,10584
6513819,13667
6515822,15900
6517824,15950
6519826,16284
6521828,16221
6523829,15356
6525830,15707
6527831,15683
6529835,15876
6531837,16060
6533837,15978
6535839,16971
6537839,16792
6539842,16950
6541843,16318
6543846,16477
6545847,17384
6547851,17095
6549851,17258
6551852,17332
6553853,17300
6555853,18097
6557855,18278
6559857,18954
6561857,19381
6563857,19105
6565861,19583
6567864,19911
6569866,20473
6571866,20696
6573869,20559
6575869,21365
6577871,21592
6579874,22025
6581877,22871
6583879,23308
6585879,24170
6587881,24124
6589884,24323
6591885,25573
6593888,25492
6595888,26772
6597890,26984
6599891,27126
6601891,27935
6603893,27738
6605896,28635
6607897,28454
6609897,27861
6611900,28063
6613901,26313
6615904,26442
6617905,25922
6619907,24154
6621910,23882
6623912,23032
6625916,22274
6627919,21345
6629922,20825
6631925,20994
6633926,20313
6635928,20659
6637929,20116
6639930,20128
6641934,20291
6643936,19812
6645938,19893
6647940,19383
6649942,19380
6651946,20261
6653946,20150
6655947,20689
6657949,20231
6659952,20096
6661953,20337
6663955,20012
6665958,20687
6667960,20541
6669963,20467
6671966,20653
6673966,19876
6675970,20559
6677972,20498
6679972,20427
6681975,20450
6683978,19804
6685978,19608
6687978,19164
6689981,19041
6691982,19545
6693982,19109
6695985,19596
6697987,19402
6699987,19352
6701990,19563
6703993,19067
6705995,19133
6707995,18717
6709998,18651
6711998,19051
6713999,18734
6716000,18844
6718001,18756
6720003,18549
6722006,19878
6724006,20467
6726009,21765
6728011,23306
6730012,22791
6732015,22852
6734018,20667
6736020,21036
6738020,20869
6740049,18832
6742052,18332
6744054,17823
6746055,17428
6748058,16786
6750061,17004
6752064,17224
6754066,17079
6756067,17389
6758069,17058
6760069,17365
6762073,17266
6764076,17060
6766078,17407
6768079,17019
6770082,17360
6772084,17255
6774085,17097
6776089,17401
6778092,17543
6780094,18076
6782097,18700
6784098,16353
6786100,15598
6788100,9537
6790103,13735
6792105,16533
6794107,36610
6796111,60015
6798112,63063
6800113,63014
6802113,52091
6804117,37529
6806121,7775
6808122,4609
6810125,3945
6812125,11384
6814129,15352
6816131,16931
6818134,16923
6820134,17369
6822134,17219
6824137,16542
6826139,16920
6828141,16598
6830142,17025
6832142,17101
6834146,17178
6836148,18091
6838150,17680
6840154,18117
6842155,17257
6844158,18137
6846159,18853
6848160,18085
6850163,18734
6852163,18691
6854167,18631
6856170,19526
6858172,19450
6860173,20354
6862174,20541
6864176,20381
6866176,20996
6868179,21246
6870183,22105
6872185,21925
6874189,22323
6876192,22851
6878193,23026
6880193,24075
6882195,24119
6884198,24993
6886200,25929
6888201,25502
6890205,26450
6892206,27203
6894206,27553
6896208,28691
6898208,28771
6900208,29589
6902210,29941
6904213,30040
6906215,30482
6908215,30187
6910216,30317
6912218,29876
6914218,28398
6916221,28164
6918224,27403
6920225,26211
6922227,25336
6924228,25254
6926228,23990
6928229,22425
6930231,22550
6932231,22229
6934234,22020
6936237,22139
6938240,21228
6940241,21746
6942241,21524
6944245,21582
6946247,21182
6948249,20470
6950252,21062
6952254,21607
6954256,21964
6956258,22094
6958259,21365
6960261,21801
6962261,21498
6964265,21826
6966266,22105
6968268,21595
6970269,22169
6972269,21831
6974271,21626
6976272,22009
6978274,21565
6980278,22193
6982281,21574
6984283,21550
6986286,20825
6988288,20261
6990290,20727
6992290,20446
6994293,20513
6996295,20670
6998298,20185
7000301,20657
7002304,20353
7004307,20525
7006310,20628
7008313,20209
7010316,20712
7012316,20599
7014319,20896
7016322,20297
7018322,20069
7020325,20669
7022328,21380
7024331,22929
7026334,23548
7028335,24735
7030338,25137
7032338,24679
7034338,22827
7036338,22751
7038339,22286
7040341,20803
7042345,19447
7044345,19444
7046346,18847
7048349,18162
7050351,18540
7052355,18460
7054359,18772
7056360,18771
7058360,18475
7060360,18898
7062360,18546
7064360,18700
7066363,18807
7068366,18400
7070369,18897
7072369,18588
7074369,18704
7076373,18799
7078375,18855
7080378,19536
7082381,20005
7084383,17588
7086385,16657
7088385,10110
7090387,16006
7092388,17797
7094391,40390
7096394,63026
7098397,63049
7100400,63071
7102401,50819
7104405,39565
7106407,7726
7108408,5064
7110408,4397
7112410,11988
7114412,16873
7116414,18318
7118414,18557
7120418,18828
7122418,18466
7124422,18129
7126425,18303
7128427,18154
7130431,18498
7132433,18418
7134433,18830
7136435,19434
7138438,19205
7140438,19525
7142441,18533
7144441,19948
7146443,20194
7148445,19569
7150447,20261
7152450,19957
7154454,20604
7156455,21375
7158457,21290
7160461,22157
7162463,22027
7164464,22389
7166466,22747
7168468,23197
7170468,23971
7172469,23536
7174472,24737
7176474,24951
7178476,24769
7180479,26355
7182479,26191
7184481,27797
7186482,28348
7188486,28129
7190488,28725
7192489,29442
7194492,30414
7196494,31361
7198496,31558
7200499,32349
7202503,32010
7204504,33193
7206504,33217
7208507,33210
7210507,32876
7212509,31801
7214509,31614
7216511,30393
7218514,30147
7220515,28702
7222515,27211
7224518,27560
7226519,25611
7228519,24619
7230522,24615
7232522,24099
7234523,24094
7236526,23653
7238527,23303
7240527,23582
7242529,23027
7244529,23593
7246530,22800
7248531,22540
7250535,22816
7252537,23135
7254540,23927
7256541,23745
7258542,23356
7260544,23590
7262547,23031
7264548,23865
7266552,23711
7268552,23628
7270555,23933
7272558,23322
7274562,23614
7276565,23615
7278565,23749
7280567,23911
7282570,23091
7284574,23550
7286575,22580
7288578,22120
7290581,22125
7292583,21961
7294583,22501
7296585,22186
7298587,22325
7300590,22449
7302593,21912
7304595,22493
7306597,20265
7308599,19819
7310603,19924
7312603,19728
7314603,20281
7316606,19391
7318608,19789
7320612,20060
7322615,20482
7324619,22548
7326621,22760
7328622,24349
7330623,24337
7332625,23356
7334629,22209
7336631,21874
7338631,21908
7340634,20016
7342637,18910
7344640,19186
7346642,18230
7348643,17813
7350646,17756
7352649,17708
7354652,18143
7356653,17872
7358654,17998
7360654,18392
7362655,18029
7364655,18516
7366655,17965
7368655,18000
7370659,18098
7372663,17663
7374665,18145
7376665,17932
7378668,18796
7380671,19220
7382675,19076
7384677,16923
7386678,15132
7388681,9777
7390683,16064
7392687,20523
7394690,40230
7396691,63080
7398691,63043
7400694,63003
7402697,45658
7404698,33771
7406701,7330
7408703,4415
7410706,5176
7412707,11924
7414709,16788
7416712,17414
7418715,18414
7420716,18025
7422717,17738
7424717,17445
7426717,17340
7428717,17713
7430721,17682
7432724,17749
7434727,18478
7436730,18776
7438730,19124
7440730,19073
7442730,18110
7444731,19406
7446733,19190
7448736,19141
7450736,19464
7452738,19135
7454739,19969
7456739,20627
7458742,21008
7460745,21698
7462745,21261
7464748,21886
7466751,21832
7468754,22878
7470754,23183
7472757,22602
7474757,24242
7476758,24039
7478758,24460
7480761,25529
7482761,25308
7484765,26796
7486768,27129
7488770,27439
7490773,27881
7492773,28551
7494773,29665
7496776,30114
7498778,31148
7500782,31548
7502782,30894
7504783,32238
7506783,32083
7508786,32351
7510789,31676
7512789,30760
7514789,30490
7516792,29330
7518795,28819
7520798,27604
7522801,25956
7524803,26082
7526806,24643
7528806,23857
7530808,23925
7532811,23428
7534814,23304
7536815,22770
7538817,22670
7540818,22781
7542822,22345
7544825,22852
7546827,21876
7548828,22024
7550828,22119
7552831,22486
7554833,23247
7556835,22907
7558839,22748
7560841,22808
7562843,22292
7564846,23167
7566847,22851
7568848,23099
7570851,23153
7572854,22502
7574855,22878
7576858,22844
7578860,23084
7580864,23135
7582867,22327
7584871,22650
7586875,21742
7588875,21747
7590875,21697
7592876,21267
7594876,21770
7596879,21428
7598880,21700
7600881,21704
7602885,21224
7604885,21746
7606887,21459
7608889,21630
7610889,21704
7612889,21557
7614890,21923
7616890,21170
7618894,21315
7620896,22061
7622899,22235
7624902,24767
7626903,25452
7628903,26837
7630907,26580
7632910,25092
7634911,24355
7636912,24088
7638914,23464
7640917,21810
7642920,20328
7644922,20494
7646926,19679
7648928,19463
7650930,19637
7652933,19451
7654936,19988
7656938,19725
7658942,19841
7660944,19948
7662944,19420
7671494,19704
7673494,19922
7675495,19488
7677497,19935
7679497,20488
7681501,20825
7683504,21405
7685508,17544
7687510,12689
7689511,10765
7691513,18482
7693517,37725
7695521,44313
7697522,62779
7699523,63027
7701524,62690
7703524,45592
7705525,16583
7707528,7223
7709530,4534
7711533,10809
7713534,13265
7715536,18818
7717537,19814
7719538,19687
7721541,19733
7723542,19324
7725542,18694
7727544,19479
7729546,19395
7731546,19272
7733546,19940
7735546,20037
7737550,20604
7739551,20527
7741554,19770
7743558,19996
7745561,20872
7747562,21074
7749565,20932
7751568,20960
7753572,21673
7755576,21241
7757579,22754
7759581,23209
7761581,23196
7763581,23969
7765581,23747
7767584,24292
7769586,25198
7771589,24945
7773589,25531
7775591,25913
7777593,26892
7779593,27113
7781596,27711
7783600,29110
7785603,28780
7787605,30016
7789606,30295
7791606,29888
7793606,32181
7795609,32529
7797612,33318
7799613,34301
7801616,34118
7803616,34957
7805619,34936
7807621,35740
7809623,35613
7811625,34319
7813626,33719
7815626,32719
7817628,32316
7819631,30040
7821633,29752
7823633,29074
7825637,27273
7827637,27497
7829639,25949
7831641,25748
7833643,26018
7835646,24813
7837648,25088
7839650,24766
7841652,24765
7843654,25007
7845654,24428
7847656,24295
7849657,24092
7851659,23935
7853661,25361
7855665,24825
7857666,25338
7859667,24846
7861669,24679
7863670,25060
7865672,24823
7867674,25366
7869678,25185
7871680,25048
7873681,25116
7875682,24525
7877683,25395
7879687,25234
7881691,25017
7883694,25014
7885694,23901
7887696,24252
7889699,23409
7891702,23620
7893702,23951
7895704,23394
7897706,24048
7899708,23738
7901711,23697
7903713,23998
7905715,23366
7907719,20084
7909720,19721
7911721,19767
7913722,20341
7915725,19250
7917727,19636
7919729,19735
7921731,20485
7923734,21220
7925738,22249
7927739,24326
7929743,24403
7931743,24043
7933744,22529
7935747,21611
7937749,22153
7939751,20283
7941754,19727
7943755,19262
7945758,18228
7947759,18436
7949761,17608
7951762,17855
7953766,18110
7955769,17661
7957771,18121
7959771,18019
7961774,18244
7963777,18484
7965778,18023
7967781,18129
7969783,18003
7971783,17847
7973784,18141
7975784,17821
7977785,18113
7979786,19093
7981786,19063
7983789,19280
7985792,16147
7987794,10901
7989796,10600
7991799,16762
7993802,36625
7995802,43417
7997803,63021
7999805,63047
8001805,63016
8003806,41127
8005806,12511
8007809,6466
8009810,4017
8011812,10452
8013815,12768
8015815,17275
8017817,18303
8019818,18390
8021822,18111
8023825,18175
8025828,17264
8027831,17343
8029833,17623
8031833,17364
8033836,17748
8035838,17823
8037840,18864
8039844,19115
8041845,18814
8043848,18705
8045851,18194
8047855,19466
8049857,19243
8051857,18794
8053857,19590
8055860,19531
8057861,19859
8059864,20917
8061865,21008
8063866,21783
8065867,21539
8067870,21876
8069873,22039
8071877,22617
8073880,23223
8075883,22839
8077887,24083
8079889,24483
8081889,24026
8083892,25768
8085893,26191
8087895,26694
8089896,27487
8091897,27190
8093899,27985
8095901,28891
8097904,29986
8099906,30325
8101906,30878
8103908,31683
8105912,31006
8107914,32167
8109914,32435
8111916,31962
8113919,31678
8115921,30108
8117924,30237
8119925,29247
8121927,27524
8123927,27633
8125929,25896
8127929,25370
8129933,24858
8131934,23578
8133937,23955
8135939,23402
8137942,23226
8139946,22738
8141947,22552
8143949,22819
8145953,22271
8147955,22801
8149956,21961
8151957,21840
8153960,22224
8155961,22614
8157964,23199
8159967,22981
8161967,22524
8163967,22848
8165967,22317
8167969,23151
8169970,23057
8171973,22819
8173977,23201
8175980,22356
8177982,22838
8179983,22965
8181986,22887
8183986,23179
8185986,22388
8187989,22209
8189990,22009
8191992,21405
8193994,21770
8195997,21261
8197998,21740
8200000,21637
8202000,21375
8204001,21790
8206003,21311
8208004,21595
8210006,19549
8212009,19230
8214011,19599
8216014,19605
8218015,19377
8220017,19129
8222017,19113
8224017,20362
8226018,20386
8228022,22172
8230047,23630
8232047,23857
8234050,23642
8236053,21631
8238055,21759
8240058,21584
8242058,19771
8244062,19508
8246064,18435
8248066,18219
8250068,18024
8252071,17103
8254074,17652
8256076,17413
8258079,17732
8260082,17637
8262084,17431
8264087,18129
8266089,17796
8268089,18036
8270091,17696
8272093,17391
8274096,17717
8276097,17461
8278099,17642
8280102,17794
8282102,18371
8284106,19149
8286109,18565
8288110,15986
8290112,11111
8292115,9520
8294117,16760
8296119,34149
8298122,42914
8300123,63051
8302125,62914
8304125,62858
8306128,39894
8308129,12474
8310132,5898
8312133,4004
8314133,10830
8316134,12788
8318135,17195
8320137,17908
8322139,17757
8324142,17798
8326143,16877
8328145,16976
8330147,17313
8332148,16943
8334148,17394
8336151,17544
8338152,18464
8340154,18804
8342155,18374
8344156,18282
8346156,18129
8348160,18949
8350162,18883
8352165,18412
8354168,19214
8356168,19327
8358168,19539
8360171,20695
8362174,20435
8364178,21053
8366181,21190
8368181,21372
8370183,21886
8372185,22318
8374185,22806
8376187,22744
8378189,23179
8380189,24134
8382189,23899
8384192,24945
8386194,26099
8388196,26057
8390196,27235
8392196,26692
8394199,27532
8396201,28844
8398203,28987
8400207,29913
8402210,30220
8404213,31086
8406215,31119
8408216,31006
8410220,31886
8412224,31140
8414224,31252
8416226,29703
8418229,29281
8420232,29017
8422232,26862
8424232,26978
8426234,25938
8428237,24681
8430237,24481
8432237,22691
8434237,23235
8436239,23029
8438240,22583
8440242,22498
8442243,21925
8444244,22541
8446246,22304
8448249,22034
8450252,21821
8452253,21232
8454254,21995
8456257,22645
8458259,22520
8460262,22752
8462263,21999
8464266,22516
8466269,22351
8468271,22463
8470275,22848
8472278,22269
8474282,22840
8476284,22334
8478286,22292
8480288,22816
8482292,22253
8484295,22735
8486299,22232
8488303,21682
8490303,21518
8492307,20497
8494310,21389
8496313,21114
8498314,21170
8500318,21334
8502321,20850
8504325,21457
8506326,21136
8508328,21012
8510330,20269
8512331,19829
8514334,20411
8516338,20440
8518341,19905
8520341,19959
8522344,19795
8524348,20912
8526348,21076
8528350,22942
8530353,24701
8532356,24304
8534356,24300
8536357,22516
8538359,22263
8540359,22443
8542359,20085
8544361,20040
8546363,18979
8548366,18450
8550369,18364
8552369,17700
8554369,18403
8556369,18342
8558370,18278
8560371,18498
8562371,18141
8564373,18442
8566373,18399
8568376,18149
8570379,18577
8572381,18138
8574381,18418
8576383,18384
8578384,18109
8580387,18689
8582387,18864
8584391,19761
8586393,18688
8588396,16012
8590396,10801
8592400,11076
8594403,17478
8596405,38176
8598408,51747
8600408,63012
8602412,62816
8604413,62958
8606413,41027
8608416,11246
8610417,5950
8612417,4441
8614417,11660
8616418,14333
8618421,17772
8620421,18464
8622424,18200
8624426,18464
8626428,17716
8628430,17377
8630430,18129
8632433,17835
8634436,18115
8636439,18383
8638441,18650
8640441,19207
8642443,18897
8644444,18462
8646444,18910
8648444,19441
8650447,19661
8652449,19463
8654453,19787
8656453,20261
8658454,20042
8660455,21018
8662455,21521
8664458,21547
8666459,22114
8668460,21915
8670460,22708
8672464,23396
8674466,23198
8676468,23839
8678469,23695
8680469,24895
8682470,25210
8684471,25629
8686474,27103
8688477,26896
8690480,27873
8692481,28105
8694482,28319
8696485,29783
8698487,30108
8700490,31032
8702490,31375
8704490,31241
8706492,32156
8708494,32015
8710497,32929
8712498,32524
8714499,31347
8716502,31035
8718504,29863
8720505,29725
8722509,27929
8724512,27438
8726514,26900
8728516,24957
8730518,24766
8732522,23723
8734524,23710
8736525,23850
8738526,23028
8740526,23237
8742530,23085
8744532,22977
8746532,23179
8748536,22646
8750538,22495
8752541,22276
8754544,22664
8756546,23569
8758546,22958
8760547,23424
8762549,22979
8764549,22882
8766550,23402
8768551,22995
8770552,23583
8772552,23366
8774555,23095
8776559,23233
8778559,22813
8780562,23572
8782564,23328
8784564,23028
8786567,23221
8788570,22063
8790571,22151
8792572,21640
8794575,21778
8796578,22153
8798581,21624
8800584,22090
8802586,22019
8804590,21746
8806590,22220
8808591,21535
8810591,21789
8812592,21656
8814593,21449
8816595,22155
8818599,20967
8820603,21509
8822606,21607
8824606,22332
8826609,23825
8828610,24460
8830613,26849
8832614,26886
8834617,25968
8836618,24571
8838620,23791
8840621,24296
8842624,21882
8844624,21010
8846627,20695
8848631,19607
8850633,19764
8852633,19444
8854636,19589
8856637,19980
8858639,19511
8860641,19924
8862644,20098
8864648,19601
8866651,19965
8868654,19421
8870656,19900
8872657,19863
8874659,19589
8876662,19910
8878664,19556
8880664,20168
8882667,20545
8884670,20896
8886672,19674
8888675,17459
8890675,11405
8892678,15025
8894678,18680
8896681,42729
8898684,60705
8900684,62946
8902687,62960
8904690,62968
8906693,44517
8908695,10623
8910696,5842
8912700,4424
8914703,12554
8916706,16392
8918709,18998
8920711,19984
8922712,19641
8924716,19881
8926719,19238
8928722,18855
8930723,19660
8932725,19345
8934725,19480
8936729,19916
8938730,20097
8940731,20643
8942735,20479
8944738,19874
8946742,20613
8948745,20849
8950748,21084
8952751,21002
8954754,21204
8956755,21726
8958756,21753
8960759,22833
8962761,23275
8964762,23436
8966765,23905
8968767,23683
8970767,24793
8972767,25111
8974769,25122
8976770,25951
8978772,25880
8980776,27158
8982778,27561
8984780,27916
8986782,29329
8988782,29147
8990783,30038
8992787,30197
8994789,31028
8996790,32309
8998790,32633
9000790,33975
9002792,34279
9004795,34238
9006799,35221
9008801,34840
9010805,35844
9012806,35070
9014810,34461
9016813,33339
9018816,32056
9020819,32314
9022823,29875
9024825,29236
9026829,28968
9028829,27063
9030829,26766
9032833,25734
9034833,25940
9036835,25748
9038838,24808
9040838,25050
9042840,24675
9044841,24763
9046843,24978
9048846,24017
9050848,24358
9052851,24018
9054853,24689
9056853,25327
9058855,24770
9060858,25202
9062858,24686
9064860,24777
9066862,25246
9068863,24781
9070867,25430
9072870,25153
9074874,25186
9076877,25027
9078879,24583
9080881,25401
9082882,25131
9084883,24937
9086883,25066
9088884,23753
9090885,23879
9092887,23313
9094891,23701
9096892,23935
9098893,23520
9100895,23957
9102899,23643
9104899,23729
9106899,23939
9108899,22400
9110902,22157
9112903,22001
9114906,22027
9116909,22464
9118911,21297
9120914,21954
9122916,21941
9124916,22778
9126917,24597
9128920,24816
9130922,27364
9132926,27032
9134928,26414
9136928,24805
9138931,24099
9140935,24664
9142938,22082
9144942,21279
9146942,21030
9148945,19837
9150949,20067
9152951,19739
9154954,20054
9156955,20285
9158957,19796
9160959,20318
9162961,20157
9164963,20086
9166963,20307
9168963,19827
9170964,20267
9172964,20221
9174965,19946
9176969,20352
9178971,19913
9180971,20703
9182974,20904
9184974,21228
9186977,19539
9188979,17808
9190980,11188
9192981,16419
9194984,19101
9196985,44203
9198987,62940
9200991,62953
9202994,63055
9204998,57705
9207000,45586
9209003,9410
9211004,5448
9213007,4422
9215010,13170
9217010,17693
9219012,19366
9221015,20279
9223019,20094
9225021,20114
9227023,19605
9229024,19312
9231025,19932
9233025,19827
9235028,19839
9237030,20304
9239032,20531
9241034,20962
9243038,20831
9245038,20004
9247040,21251
9249042,21372
9251045,21435
9253047,21497
9255049,21377
9257049,22145
9259053,22392
9261057,23106
9263060,23785
9265063,23672
9267063,24317
9269065,24170
9271068,25314
9273072,25643
9275075,25248
9277076,26479
9279077,26372
9281080,27431
9283082,28188
9285082,28051
9287084,30066
9289085,30067
9291089,30745
9293091,31054
9295095,31805
9297097,33044
9299099,33402
9301102,34744
9303104,34886
9305104,34886
9307106,36123
9309110,35611
9311110,36568
9313110,35686
9315111,34979
9317112,34100
9319112,32725
9321114,32995
9323115,30740
9325115,29644
9327116,29773
9329116,27402
9331120,26932
9333123,26250
9335125,26124
9337127,26014
9339131,25169
9341131,25429
9343133,25153
9345134,25144
9347137,25402
9349139,24285
9351143,24655
9353145,24422
9355147,25092
9357150,25767
9359150,25162
9361153,25476
9363155,25215
9365156,25088
9367159,25726
9369162,25172
9371162,25732
9373165,25527
9375165,25383
9377167,25479
9379170,25063
9381172,25731
9383173,25547
9385174,25140
9387174,25425
9389177,24094
9391178,24098
9393178,23801
9395179,23845
9397181,24323
9399183,23764
9401186,24255
9403186,24114
9405190,23897
9407191,24360
9409192,21371
9411192,20643
9413193,20454
9415194,20534
9417196,21088
9419196,19990
9421197,20494
9423197,20563
9425201,21200
9427203,23135
9429205,23207
9431208,25138
9433212,25122
9435213,24431
9437214,22970
9439217,22557
9441218,22679
9443219,20731
9445223,19461
9447226,19706
9449228,18604
9451228,18415
9453229,18490
9455232,18354
9457233,18855
9459234,18601
9461238,18656
9463240,18843
9465241,18375
9467244,18788
9469248,18666
9471249,18585
9473250,18832
9475252,18486
9477254,18812
9479256,18687
9481257,19023
9483261,19519
9485264,19957
9487266,17672
9489268,16571
9491271,10190
9493275,16098
9495275,17674
9497277,40710
9499281,62992
9501285,62840
9503287,62996
9505291,50410
9507294,41590
9509295,8121
9511299,5041
9513302,4372
9515305,12087
9517305,16910
9519307,18197
9521311,18676
9523314,18812
9525315,18338
9527318,18178
9529321,18248
9531325,18370
9533327,18390
9535331,18297
9537334,18923
9539336,19324
9541336,19410
9543339,19547
9545341,18426
9547341,19893
9549344,20076
9551345,19769
9553346,20243
9555349,19872
9557351,20672
9559352,21352
9561355,21541
9563358,22097
9565361,21820
9567364,22462
9569365,22593
9571365,23464
9573366,23929
9575369,23385
9577371,24681
9579373,24703
9581374,24955
9583374,26227
9585374,25864
9587376,27860
9589379,28308
9591383,28144
9593386,28695
9595388,29406
9597389,30362
9599392,31289
9601393,31568
9603396,32306
9605399,31947
9607400,33133
9609402,33228
9611405,33274
9613408,32982
9615408,31956
9617411,31662
9619414,30375
9621417,30173
9623421,28637
9625425,27197
9627426,27502
9629428,25496
9631431,24734
9633434,24535
9635437,24157
9637438,24088
9639440,23424
9641440,23512
9643442,23486
9645445,23097
9647445,23592
9649445,22530
9651447,22798
9653450,22565
9655452,23185
9657455,23984
9659457,23530
9661458,23588
9663461,23450
9665461,23097
9667463,23921
9669465,23488
9671468,23861
9673470,23830
9675472,23490
9677476,23590
9679477,23338
9681478,23910
9683482,23791
9685483,23246
9687484,23513
9689484,22331
9691487,22196
9693490,22205
9695492,22159
9697493,22520
9699495,21979
9701495,22465
9703497,22335
9705500,22151
9707502,22485
9709504,18661
9711506,18113
9713507,18017
9715508,18081
9717510,18394
9719512,17427
9721515,18041
9723519,18162
9725521,18887
9727523,20393
9729525,20553
9731528,22368
9733531,21806
9735531,21333
9737532,20402
9739533,19921
9741535,20126
9743537,18122
9745540,17198
9747543,17319
9749543,16423
9751545,16355
9753547,16279
9755550,16292
9757552,16694
9759554,16447
9761555,16569
9763556,16643
9765558,16232
9767559,16685
9769560,16477
9771560,16502
9773560,16635
9775564,16248
9777566,16652
9779569,16543
9781569,16968
9783569,17401
9785572,17357
9787573,15386
9789574,13923
9791577,9007
9793580,14714
9795582,18650
9797584,36161
9799588,62603
9801588,63016
9803590,63024
9805593,41651
9807595,33009
9809596,6603
9811597,4284
9813597,4801
9815598,10675
9817598,15344
9819600,16199
9821604,16457
9823604,16687
9825604,16219
9827607,15927
9829610,16136
9831610,16047
9833610,16397
9835614,16381
9837614,16779
9839615,17311
9841617,16964
9843618,17351
9845620,16497
9847622,17389
9849624,17754
9851627,17257
9853629,17773
9855632,17598
9857633,17927
9859634,19011
9861636,18778
9863637,19543
9865637,19675
9867639,19779
9869641,20437
9871642,20419
9873644,20992
9875645,20876
9877646,21295
9879648,21960
9881651,21991
9883654,22902
9885656,23244
9887659,23802
9889661,24897
9891663,24508
9893664,25314
9895667,26447
9897670,26462
9899672,27621
9901672,27637
9903676,28310
9905679,28484
9907681,28793
9909684,29412
9911685,28787
9913685,28721
9915689,28165
9917691,27162
9919694,26986
9921696,26028
9923698,25065
9925700,24268
9927704,23645
9929708,22886
9931708,21354
9933708,21736
9935708,21646
9937711,20799
9939713,20930
9941713,20217
9943714,20555
9945716,20565
9947717,20225
9949717,20369
9951719,19980
9953719,20261
9955723,20837
9957723,20537
9959726,21040
9961727,20385
9963727,20571
9965727,20615
9967729,20471
9969729,20992
9971729,20731
9973732,20836
9975734,20859
9977735,20150
9979738,21001
9981742,20761
9983745,20851
9985748,20677
9987750,20090
9989752,20178
9991752,19443
9993754,19482
9995758,19916
9997760,19430
9999761,19932
10001763,19742
10003766,19739
10005769,19901
10007771,19448
10009772,22163
10011775,22273
10013776,22208
10015779,22765
10017781,22183
10019784,22147
10021785,22209
10023785,22470
10025788,23532
10027792,24847
10029793,26374
10031795,27633
10033799,27058
10035802,26566
10037805,24454
10039808,25053
10041812,23830
10043815,22482
10045818,21443
10047820,20805
10049822,20682
10051825,19727
10053825,19946
10055825,20271
10057826,19816
10059829,20325
10061833,19998
10063834,20490
10065835,20621
10067838,20090
10069839,20360
10071840,20026
10073842,20166
10075844,20297
10077845,19828
10079845,20351
10081846,20966
10083846,21299
10085847,22093
10087848,18258
10089852,16141
10091854,10839
10093857,18205
10095858,26500
10097859,44751
10099862,62639
10101862,62764
10103862,62619
10105863,50588
10107866,31323
10109869,7659
10111869,4799
10113870,6733
10115870,13463
10117870,18514
10119871,20150
10121874,20431
10123874,20164
10125877,20297
10127878,19398
10129879,19573
10131883,19683
10133887,19719
10135887,19994
10137890,19755
10139892,20835
10141896,21165
10143897,21108
10145899,21024
10147902,20137
10149906,21999
10151909,21718
10153911,21575
10155912,22115
10157912,21819
10159915,22452
10161915,23348
10163916,23580
10165916,24347
10167916,24118
10169919,24833
10171921,24657
10173922,25506
10175926,26167
10177928,25575
10179932,27094
10181936,27373
10183939,27423
10185939,28963
10187942,29222
10189944,30341
10191948,31034
10193948,30785
10195948,31560
10197949,32648
10199952,33932
10201953,34301
10203953,34840
10205957,35838
10207960,35198
10209963,36565
10211966,36631
10213970,36346
10215970,36033
10217973,34445
10219974,34445
10221978,33234
10223980,31806
10225980,31265
10227983,29547
10229986,29009
10231986,28092
10233989,26580
10235991,26861
10237991,26189
10239991,26111
10241992,25736
10243994,25411
10245994,25772
10247996,25251
10249996,25706
10251998,24942
10253999,24521
10256002,25096
10258005,25585
10260007,26000
10262007,25980
10264007,25236
10266010,25800
10268011,25310
10270012,25953
10272015,26038
10274018,25481
10276020,26166
10278023,25493
10280044,25836
10282044,25826
10284048,25776
10286050,26101
10288053,25173
10290055,25324
10292057,24797
10294057,24190
10296057,24527
10298060,24135
10300061,24624
10302065,24495
10304069,24341
10306070,24693
10308074,24098
10310077,24665
10312080,20064
10314080,19736
10316082,19965
10318085,19791
10320085,19874
10322088,19403
10324092,19657
10326095,20627
10328097,20505
10330100,22705
10332100,23827
10334104,24186
10336105,24346
10338107,22681
10340110,22124
10342112,21994
10344116,20639
10346119,19959
10348121,18776
10350124,18781
10352125,18379
10354125,17502
10356128,17985
10358130,17722
10360131,18073
10362132,18039
10364135,17829
10366136,18506
10368139,18159
10370140,18420
10372140,18139
10374141,17673
10376144,18137
10378146,17893
10380149,18007
10382150,18074
10384151,18637
10386153,19418
10388157,19306
10390157,16402
10392160,11938
10394160,9480
10396162,16964
10398164,32466
10400164,40068
10402167,63247
10404169,62871
10406172,63016
10408174,41735
10410175,19202
10412178,6854
10414178,4090
10416182,9207
10418185,12023
10420185,17309
10422185,18203
10424186,18006
10426190,18240
10428193,17431
10430196,17239
10432198,17672
10434198,17301
10436198,17746
10438199,17910
10440202,18668
10442202,19163
10444202,18689
10446204,18788
10448208,18315
10450208,19244
10452209,19342
10454210,18747
10456210,19589
10458210,19677
10460212,19599
10462213,20968
10464213,21097
10466213,21668
10468215,21686
10470215,21497
10472217,22191
10474218,22738
10476221,23120
10478222,23143
10480225,23683
10482227,24581
10484229,24234
10486231,25524
10488232,26442
10490235,26241
10492236,27546
10494236,27365
10496237,27753
10498240,29226
10500241,29426
10502241,30514
10504242,31056
10506244,31402
10508246,31681
10510249,31563
10512252,32625
10514256,32143
10516258,31549
10518259,30760
10520263,29942
10522263,29514
10524264,27634
10526264,27526
10528266,26413
10530268,25022
10532268,25053
10534272,23461
10536275,23795
10538278,23813
10540281,22763
10542285,22965
10544288,22294
10546291,22822
10548295,22658
10550295,22468
10552297,22189
10554297,21658
10556299,22109
10558302,23083
10560302,22758
10562302,23235
10564302,22468
10566305,22680
10568305,22726
10570305,22722
10572306,23235
10574306,22879
10576308,23075
10578310,22874
10580313,22269
10582317,23248
10584320,22827
10586323,23101
10588325,22782
10590325,21861
10592329,22177
10594333,21394
10596335,21676
10598337,21706
10600338,21287
10602338,21774
10604338,21461
10606339,21630
10608339,21703
10610341,21237
10612342,22135
10614346,21822
10616349,21956
10618352,22410
10620354,21465
10622357,21802
10624361,21736
10626364,22802
10628367,23123
10630369,24683
10632371,26758
10634371,26771
10636372,26407
10638374,25050
10640375,24114
10642379,24705
10644379,22572
10646383,22091
10648384,20949
10650388,20072
10652391,20258
10654394,19302
10656396,19699
10658398,19874
10660401,19497
10662402,19976
10664402,19591
10666405,20238
10668406,20245
10670410,19905
10672412,20028
10674416,19540
10676418,19912
10678421,19837
10680424,19585
10682425,19994
10684428,20575
10686428,21449
10688429,21709
10690431,17516
10692434,12569
10694437,10669
10696440,18793
10698441,38559
10700444,44383
10702444,62994
10704447,62938
10706450,62992
10708452,45676
10710456,16929
10712460,7182
10714460,4512
10716462,11286
10718463,13506
10720463,19050
10722466,20141
10724466,19827
10726467,19916
10728468,19295
10730471,18798
10732475,19548
10734477,19160
10736478,19549
10738479,19854
10740483,20371
10742484,21061
10744485,20681
10746486,20441
10748489,20245
10750492,21245
10752494,21513
10754496,21022
10756497,21670
10758499,21996
10760499,21491
10762502,23203
10764505,23414
10766507,23809
10768510,24194
10770511,24008
10772515,24741
10774517,25262
10776519,25656
10778521,25800
10780524,25878
10782527,27077
10784530,26781
10786532,28153
10788534,29287
10790536,29105
10792536,30493
10794540,30185
10796543,30764
10798545,32508
10800546,32809
10802547,33871
10804551,34176
10806554,35008
10808556,35121
10810556,35244
10812556,36290
10814560,35478
10816562,35194
10818563,33869
10820567,33255
10822568,32673
10824570,30268
10826574,30399
10828578,29035
10830580,27811
10832583,27361
10834586,25426
10836589,26141
10838591,25663
10840594,25609
10842596,25378
10844599,24851
10846600,25351
10848601,24991
10850604,25271
10852607,24539
10854608,24124
10856609,24785
10858611,25226
10860612,25655
10862614,25545
10864618,24909
10866618,25437
10868622,24889
10870625,25684
10872628,25552
10874630,25398
10876632,25806
10878632,24918
10880634,25405
10882637,25573
10884640,25334
10886642,25746
10888644,24805
10890647,24757
10892647,24361
10894647,23584
10896649,24242
10898651,23692
10900655,24280
10902658,24104
10904659,23948
10906662,24272
10908664,23725
10910668,23971
10912669,19490
10914669,19390
10916672,19542
10918674,19448
10920675,19326
10922677,19094
10924678,19338
10926681,20490
10928682,20463
10930685,22400
10932686,23802
10934686,23865
10936686,23568
10938690,21667
10940691,21751
10942693,21578
10944694,19756
10946695,19499
10948696,18467
10950697,18266
10952700,17897
10954702,17082
10956704,17665
10958706,17363
10960708,17686
10962708,17662
10964708,17472
10966710,18101
10968710,17857
10970712,18018
10972712,17716
10974713,17317
10976714,17586
10978716,17537
10980717,17600
10982717,17760
10984717,18399
10986718,19070
10988718,18414
10990720,15840
10992724,10701
10994725,10642
10996727,16842
10998730,35950
11000730,43666
11002730,62991
11004733,63143
11006736,62901
11008739,39767
11010741,12694
11012741,5952
11014743,4002
11016745,10850
11018746,12824
11020750,17108
11022752,17971
11024753,17590
11026753,17738
11028755,17027
11030755,16883
11032755,17407
11034758,16982
11036758,17449
11038760,17610
11040763,18352
11042763,18863
11044763,18486
11046765,18180
11048767,18208
11050769,18792
11052770,18916
11054773,18635
11056776,19123
11058776,19470
11060776,19266
11062780,20665
11064783,20656
11066785,20936
11068788,21311
11070791,21200
11072793,22091
11074795,22481
11076797,22706
11078801,22869
11080803,23019
11082806,24222
11084809,24026
11086810,24841
11088813,26181
11090816,25940
11092816,27238
11094816,26840
11096816,27383
11098818,28947
11100821,28947
11102823,30080
11104825,30416
11106826,30962
11108828,31305
11110830,30974
11112833,31901
11114836,31185
11116838,31117
11118841,29892
11120842,29035
11122843,29071
11124843,27050
11126845,26864
11128848,25988
11130848,24306
11132851,24317
11134853,22840
11136855,23099
11138857,23007
11140859,22374
11142861,22556
11144864,22127
11146865,22366
11148865,22670
11150865,21795
11152867,21815
11154870,21416
11156873,21892
11158875,22743
11160877,22384
11162877,22778
11164880,22132
11166882,22324
11168885,22541
11170887,22300
11172887,22856
11174890,22194
11176892,22724
11178894,22454
11180894,22093
11182898,22858
11184901,22473
11186904,22658
11188905,22392
11190905,21378
11192908,21557
11194910,20671
11196913,21262
11198914,21299
11200916,20916
11202919,21402
11204922,21013
11206924,21315
11208926,21298
11210926,20948
11212926,21451
11214926,21113
11216928,21313
11218930,21723
11220933,20639
11222937,21141
11224941,21049
11226942,22207
11228943,23085
11230944,24014
11232944,26295
11234946,25920
11236950,25607
11238950,24139
11240952,23374
11242952,23994
11244955,21485
11246956,21028
11248957,20262
11250961,19183
11252964,19498
11254967,18906
11256969,19442
11258971,19506
11260974,19135
11262976,19580
11264979,19244
11266980,19481
11268982,19509
11270982,19101
11272982,19573
11274984,19338
11276985,19403
11278986,19532
11280990,19086
11282993,19783
11284993,20050
11286994,20752
11288995,19843
11290997,16995
11293000,11231
11295003,13205
11297006,18518
11299008,40757
11301009,54389
11303009,62942
11305011,63007
11307014,62994
11309015,43470
11311019,11760
11313020,6258
11315024,4427
11317026,12261
11319028,15152
11321030,18821
11323033,19551
11325036,19133
11327038,19536
11329038,18771
11331039,18704
11333041,19209
11335041,18733
11337044,19317
11339047,19429
11341047,19912
11343047,20350
11345048,19944
11347049,19589
11349049,19940
11351050,20551
11353050,20743
11355050,20452
11357051,20900
11359053,21251
11361054,21273
11363054,22505
11365057,22774
11367058,23212
11369059,23560
11371062,23347
11373066,24485
11375069,24605
11377071,24914
11379073,25146
11381075,25180
11383079,26410
11385082,26443
11387085,27443
11389088,28789
11391091,28682
11393095,29834
11395095,29547
11397096,30614
11399099,31447
11401099,31943
11403100,33191
11405102,33185
11407102,33946
11409106,34377
11411108,34208
11413110,35007
11415110,34168
11417112,34026
11419113,32678
11421115,31696
11423117,31627
11425120,29267
11427122,29300
11429123,28473
11431126,26675
11433130,26104
11435133,24750
11437135,25433
11439136,24929
11441136,24745
11443137,24669
11445140,24040
11447141,24669
11449143,24389
11451143,24104
11453146,23927
11455146,23372
11457148,24421
11459150,24729
11461152,24740
11463155,24823
11465158,24071
11467160,24660
11469162,24601
11471163,24761
11473165,24914
11475166,24412
11477167,24946
11479168,24503
11481172,24603
11483172,25026
11485173,24456
11487176,24867
11489176,24457
11491180,23693
11493184,23598
11495187,22626
11497188,23620
11499190,23312
11501194,23328
11503197,23510
11505201,22989
11507201,23580
11509202,23326
11511206,22734
11513206,22159
11515206,21579
11517208,22221
11519210,22207
11521214,21533
11523216,21935
11525219,21642
11527221,23105
11529223,24147
11531227,25000
11533231,27083
11535235,26208
11537236,26440
11539238,24613
11541238,24367
11543241,24643
11545244,21854
11547247,21646
11549249,20827
11551251,20162
11553254,19952
11555257,19095
11557260,19915
11559262,19767
11561262,19694
11563264,19931
11565268,19652
11567270,20317
11569271,20118
11571271,19876
11573272,19990
11575273,19412
11577276,19917
11579278,19795
11581280,19659
11583283,20481
11585286,20594
11587288,21652
11589291,19611
11591294,17496
11593298,11307
11595301,15004
11597304,19081
11599304,43152
11601304,62347
11603306,63061
11605309,63121
11607309,61261
11609309,44382
11611310,10390
11613310,5727
11615311,4415
11617311,12945
11619312,16565
11621313,19303
11623315,20245
11625317,19601
11627317,19972
11629319,19018
11631323,19190
11633324,19553
11635327,19086
11637329,19770
11639329,19791
11641329,20619
11643331,21024
11645334,20620
11647337,20383
11649338,20954
11651340,21330
11653343,21417
11655345,21128
11657348,21698
11659350,21967
11661350,22195
11663352,23200
11665356,23452
11667356,23995
11669358,24216
11671362,24095
11673362,25376
11675362,25425
11677364,25598
11679365,26273
11681369,25871
11683371,27256
11685374,27347
11687375,28125
11689375,29535
11691378,29487
11693382,30528
11695384,30348
11697384,31706
11699385,32559
11701385,32991
11703387,34459
11705387,34353
11707390,34984
11709391,35542
11711392,35171
11713392,36314
11715396,35172
11717399,34989
11719402,33656
11721402,32508
11723402,32728
11725406,30060
11727409,29784
11729413,29241
11731414,27269
11733414,26716
11735417,25569
11737418,26039
11739419,25732
11741422,25260
11743425,25423
11745427,24881
11747428,25336
11749429,25280
11751431,24469
11753435,24699
11755439,24090
11757440,25251
11759443,25601
11761446,25310
11763448,25556
11765450,24849
11767451,25363
11769453,25517
11771454,25314
11773456,25817
11775459,25184
11777462,25758
11779463,25262
11781463,25102
11783464,25785
11785468,25195
11787470,25517
11789473,25230
11791476,24344
11793480,24184
11795480,23388
11797481,24301
11799484,24099
11801485,23920
11803485,24300
11805485,23825
11807485,24239
11809486,24233
11811489,21107
11813489,19279
11815489,18893
11817491,19288
11819492,19495
11821492,18524
11823494,19075
11825496,18923
11827500,19799
11829503,21064
11831503,21219
11833503,23488
11835503,22973
11837505,22959
11839505,21531
11841505,20837
11843509,21362
11845512,19157
11847515,18456
11849517,18142
11851517,17354
11853517,17315
11855521,16878
11857524,17166
11859527,17363
11861527,16978
11863529,17340
11865532,17498
11867534,17514
11869535,17772
11871535,17102
11873536,17361
11875539,17213
11877540,17116
11879542,17332
11881546,17080
11883548,17830
11885548,18047
11887550,18487
11889550,16784
11891552,15277
11893702,9386
11895731,14807
11897815,17055
11899819,38312
11901822,62638
11903823,62796
11905824,62812
11907826,46283
11909826,37546
11911826,7419
11913828,4520
11915829,3983
11917832,11580
11919836,15682
11921837,16759
11923838,17728
11925841,17087
11927843,17297
11929844,16590
11931844,16564
11933846,17015
11935846,16752
11937847,17195
11939849,17426
11941850,17619
11943853,18109
11945853,17905
11947857,17586
11949858,18404
11951859,18346
11953861,18498
11955863,18582
11957865,18600
11959869,19130
11961871,19302
11963871,19934
11965872,20546
11967872,20537
11969875,21053
11971878,20953
11973880,21916
11975880,22019
11977881,21712
11979882,23105
11981884,22780
11983887,23493
11985891,24292
11987892,24115
11989893,25802
11991897,25828
11993899,26383
11995901,26694
11997903,27378
11999906,28368
12001906,28521
12003909,29762
12005912,30043
12007912,29880
12009914,30832
12011915,30309
12013915,31080
12015916,30488
12017919,29623
12019922,29075
12021922,27919
12023923,28045
12025926,26414
12027927,25096
12029928,25274
12031930,23690
12033931,22927
12035931,22783
12037933,22346
12039934,22289
12041935,21719
12043938,21658
12045940,21702
12047942,21248
12049944,21768
12051946,21130
12053947,21273
12055949,21318
12057951,21441
12059952,22132
12061955,21871
12063955,21621
12065955,21732
12067956,21263
12069958,22051
12071960,21912
12073964,21860
12075967,22114
12077969,21531
12079971,21778
12081971,21890
12083974,21847
12085975,22090
12087976,21314
12089979,21754
12091980,21223
12093981,20595
12095982,20711
12097986,20491
12099988,21000
12101990,20875
12103991,20688
12105991,21024
12107992,20649
12109994,20962
12111995,20643
12113995,20223
12115995,20691
12117997,20607
12119998,20897
12121998,20616
12124002,20142
12126002,20787
12128003,21433
12130006,23292
12132008,24110
12134008,25111
12136010,25131
12138010,24463
12140011,23089
12142014,23164
12144018,22256
12146022,20763
12148022,19821
12150045,19851
12152047,19098
12154047,18328
12156049,18556
12158050,18463
12160054,18813
12162054,18839
12164057,18524
12166059,19143
12168061,18849
12170065,19157
12172066,18814
12174066,18394
12176069,18857
12178070,18548
12180071,18730
12182073,18791
12184073,19330
12186077,20021
12188077,20339
12190077,17654
12192080,16115
12194084,10042
12196085,16709
12198087,20998
12200088,41448
12202091,63202
12204095,63031
12206096,62927
12208099,48214
12210102,33254
12212106,7297
12214109,4858
12216111,5472
12218111,12503
12220114,17447
12222117,18435
12224120,18857
12226121,18949
12228124,18427
12230127,18119
12232128,18367
12234132,18125
12236134,18482
12238137,18178
12240139,18737
12242141,19340
12244143,19478
12246146,19972
12248149,19326
12250150,19142
12252152,20432
12254155,20078
12256155,20336
12258156,20315
12260158,20519
12262159,20604
12264160,21114
12266163,22095
12268164,22173
12270166,22626
12272170,22907
12274173,22600
12276175,24222
12278177,23984
12280179,24094
12282182,24921
12284182,24803
12286183,25761
12288183,26438
12290184,27009
12292184,27928
12294184,27929
12296184,28813
12298188,28689
12300189,30191
12302190,31212
12304191,30877
12306193,32534
12308194,32550
12310194,32459
12312194,33727
12314198,33203
12316199,33898
12318201,32877
12320201,31746
12322203,31596
12324203,30257
12326207,29904
12328209,28450
12330209,27634
12332213,27105
12334213,25519
12336215,24805
12338216,24456
12340218,24345
12342221,24265
12344225,23576
12346228,23986
12348230,23767
12350233,23597
12352233,23943
12354236,22718
12356238,23193
12358238,23055
12360240,23819
12362244,24293
12364247,23762
12366247,23926
12368250,23783
12370250,23485
12372252,24294
12374253,23789
12376253,24176
12378254,24104
12380256,23514
12382257,23990
12384260,23753
12386262,24140
12388264,24237
12390267,23462
12392270,23556
12394273,22820
12396274,22472
12398274,22624
12400278,22316
12402280,22852
12404282,22454
12406283,22660
12408284,22796
12410284,22227
12412285,22819
12414286,19555
12416286,19346
12418287,19568
12420288,19442
12422290,19583
12424290,19045
12426291,19232
12428292,20094
12430295,20164
12432299,22373
12434299,23235
12436300,23795
12438300,23682
12440302,22278
12442306,21760
12444307,21672
12446308,20112
12448309,19629
12450310,18561
12452310,18356
12454310,18077
12456311,16995
12458313,17562
12460317,17480
12462320,17628
12464323,17678
12466325,17291
12468326,18067
12470328,17921
12472329,17954
12474332,17764
12476335,17293
12478337,17752
12480337,17584
12482340,17533
12484343,17741
12486345,18316
12488345,19009
12490349,19075
12492350,16040
12494351,12886
12496353,9574
12498356,16391
12500359,28140
12502361,38840
12504364,62956
12506366,62959
12508368,63044
12510368,42057
12512372,20116
12514376,6463
12516376,4080
12518377,9128
12520380,12063
12522381,16837
12524383,17855
12526384,17705
12528385,17770
12530389,17259
12532389,16762
12534391,17357
12536391,17048
12538392,17293
12540394,17662
12542397,17914
12544400,18836
12546403,18554
12548405,18332
12550405,18120
12552408,18640
12554411,18997
12556414,18614
12558416,19010
12560419,19434
12562423,19066
12564427,20613
12566429,20663
12568432,20952
12570433,21299
12572437,21060
12574439,21766
12576441,22456
12578442,22608
12580444,22846
12582446,22974
12584450,24030
12586452,24004
12588455,24652
12590456,25903
12592456,25815
12594460,27170
12596462,26928
12598462,26932
12600466,28911
12602466,28836
12604468,29666
12606468,30634
12608470,30538
12610473,31197
12612476,30851
12614480,31754
12616482,31642
12618483,30899
12620484,30355
12622486,29043
12624487,29047
12626488,27630
12628491,26994
12630491,26173
12632494,24517
12634494,24655
12636498,23075
12638502,22925
12640503,23213
12642503,22305
12644506,22624
12646508,22320
12648510,22156
12650512,22490
12652512,21967
12654512,21771
12656514,21598
12658515,21456
12660517,22806
12662521,22266
12664523,22754
12666523,22324
12668525,22091
12670527,22434
12672529,22269
12674530,22726
12676531,22730
12678533,22322
12680533,22652
12682533,22067
12684537,22718
12686538,22742
12688539,22296
12690542,22522
12692543,21627
12694543,21683
12696544,20998
12698544,20736
12700545,21405
12702548,21101
12704551,21243
12706552,21325
12708554,20893
12710554,21382
12712557,21121
12714559,21212
12716560,21351
12718563,20873
12720564,21743
12722566,21003
12724567,20819
12726570,21354
12728573,21598
12730576,22484
12732576,24313
12734577,25588
12736579,26479
12738582,25227
12740584,24670
12742588,23759
12744589,23580
12746591,22310
12748592,20877
12750595,20333
12752595,19612
12754597,19374
12756600,19419
12758600,18944
12760602,19547
12762602,19452
12764606,19299
12766607,19592
12768608,19186
12770611,19523
12772614,19434
12774618,19291
12776619,19597
12778621,19194
12780624,19560
12782624,19470
12784626,19244
12786627,20283
12788631,20389
12790635,20952
12792635,17477
12794638,12327
12796642,10458
12798642,18178
12800644,35778
12802645,43754
12804645,62846
12806647,62996
12808649,62968
12810652,44538
12812655,19306
12814658,7215
12816658,4555
12818660,10330
12820661,13301
12822664,18782
12824667,19163
12826669,19563
12828670,19157
12830670,18990
12832671,18795
12834674,18780
12836677,19246
12838679,18887
12840680,19443
12842683,19974
12844686,19877
12846688,20317
12848689,19571
12850692,19443
12852693,20869
12854696,20298
12856696,20687
12858696,20731
12860700,21072
12862704,21360
12864707,21959
12866710,23035
12868711,22898
12870715,23385
12872718,23811
12874720,23338
12876722,25008
12878725,24713
12880725,24804
12882728,25705
12884730,25627
12886732,26505
12888734,27205
12890736,28324
12892736,29003
12894736,29068
12896736,30010
12898739,29789
12900743,31204
12902746,32346
12904749,31927
12906751,33749
12908752,33551
12910752,33891
12912754,34791
12914757,34373
12916760,35258
12918760,33544
12920760,32932
12922762,32635
12924765,30982
12926767,30251
12928769,29260
12930771,28662
12932775,27145
12934778,26353
12936781,25549
12938783,24814
12940786,25365
12942786,24837
12944788,24325
12946790,24722
12948793,24145
12950797,24608
12952801,24463
12954805,23639
12956807,23961
12958809,23392
12960809,24905
12962811,24832
12964813,24568
12966814,24725
12968815,24178
12970815,24572
12972819,24882
12974823,24574
12976826,25039
12978828,24478
12980831,24667
12982835,24491
12984837,24541
12986839,25035
12988842,24455
12990845,24657
12992848,23886
12994852,23591
12996853,23276
12998853,23001
13000853,23429
13002855,23412
13004857,23201
13006858,23568
13008860,23072
13010860,23565
13012861,23419
13014861,19771
13016863,19877
13018865,19573
13020866,20224
13022870,19618
13024874,19317
13026876,19947
13028878,19996
13030878,20667
13032878,22330
13034881,23645
13036882,24623
13038884,23442
13040884,22546
13042887,22047
13044891,21672
13046895,20505
13048898,19496
13050901,18869
13052905,18148
13054905,17853
13056905,17763
13058905,17690
13060906,18057
13062907,18095
13064911,17710
13066913,18133
13068915,17822
13070915,18027
13072918,18027
13074921,17720
13076922,18162
13078924,17850
13080926,18017
13082926,18063
13084928,17664
13086929,18820
13088931,19071
13090934,19340
13092937,15968
13094940,10793
13096943,10405
13098946,16888
13100946,34962
13102947,41475
13104948,62914
13106950,63071
13108952,62819
13110952,40598
13112955,14416
13114957,6577
13116958,4013
13118959,10200
13120959,12508
13122959,17472
13124962,17626
13126964,18136
13128966,17841
13130970,17435
13132970,17337
13134970,17368
13136973,17776
13138974,17534
13140976,17971
13142980,18692
13144981,18408
13146982,18825
13148984,17985
13150986,18080
13152987,19453
13154991,18774
13156994,19238
13158997,19336
13160999,19677
13162999,20001
13164999,20140
13167002,21221
13169004,21228
13171007,21481
13173007,22036
13175011,21686
13177013,22823
13179016,22606
13181020,22586
13183022,23947
13185025,23908
13187027,24669
13189029,25134
13191033,26311
13193036,26828
13195038,26556
13197041,27515
13199041,27430
13201041,28621
13203044,29902
13205047,29615
13207047,31174
13209049,30851
13211050,30954
13213052,31837
13215053,31532
13217053,32227
13219054,30918
13221055,30007
13223057,30006
13225059,28376
13227060,27570
13229062,26844
13231062,26151
13233066,24973
13235067,23880
13237070,23589
13239072,23356
13241072,23155
13243076,22883
13245078,22044
13247079,22501
13249080,22296
13251083,22183
13253086,22440
13255088,21772
13257090,22157
13259091,22072
13261095,22596
13263098,22826
13265099,22175
13267100,22490
13269101,22330
13271102,22239
13273106,22808
13275109,22298
13277112,22787
13279115,22630
13281118,22257
13283120,22588
13285123,22268
13287125,22838
13289126,22606
13291127,22187
13293129,22195
13295133,21454
13297136,21509
13299138,21539
13301139,21453
13303139,21738
13305142,21215
13307144,21758
13309145,21580
13311147,21422
13313151,21758
13315154,20872
13317158,21391
13319159,21302
13321161,21535
13323162,21145
13325164,20619
13327166,21318
13329167,22163
13331170,22373
13333173,24639
13335175,25695
13337178,26223
13339180,25626
13341182,23772
13343182,23971
13345186,23466
13347188,21862
13349189,21152
13351193,20026
13353195,19711
13355196,19039
13357198,19200
13359200,19387
13361203,19249
13363207,19627
13365210,19163
13367212,19525
13369214,19399
13371215,19202
13373217,19584
13375217,19184
13377220,19556
13379222,19506
13381225,19210
13383228,19588
13385231,19343
13387231,20241
13389232,20808
13391234,19993
13393238,17455
13395241,11223
13397243,12502
13399244,18608
13401244,39363
13403248,50344
13405251,62971
13407252,62994
13409252,62915
13411256,43064
13413259,12150
13415261,6505
13417263,4468
13419265,11850
13421269,14564
13423270,19037
13425274,19157
13427274,19568
13429276,19328
13431276,18761
13433277,18949
13435278,18698
13437279,19097
13439282,19133
13441282,19254
13443282,20261
13445282,19851
13447282,20301
13449286,19517
13451287,19552
13453288,21014
13455289,20306
13457291,20697
13459294,20900
13461297,20900
13463301,21699
13465304,22108
13467306,23025
13469308,23212
13471311,23075
13473313,23929
13475317,23814
13477318,24917
13479321,24893
13481325,24811
13483326,25762
13485328,25928
13487329,26634
13489333,27454
13491334,28256
13493336,29274
13495339,29246
13497341,29920
13499342,30468
13501345,30914
13503348,32492
13505351,32386
13507353,33563
13509354,33943
13511357,33657
13513357,34930
13515360,34441
13517363,34670
13519365,33922
13521365,32270
13523369,32366
13525372,30902
13527374,29975
13529378,29085
13531378,28091
13533378,27077
13535382,25699
13537386,25397
13539389,25114
13541392,24991
13543394,24982
13545395,24095
13547397,24691
13549400,24395
13551403,24357
13553403,24296
13555403,23386
13557405,23975
13559407,24036
13561409,24681
13563412,25014
13565412,24339
13567414,24607
13569416,24497
13571417,24362
13573417,25039
13575417,24473
13577420,25006
13579423,24863
13581427,24371
13583430,24865
13585433,24460
13587435,25010
13589439,24635
13591442,24291
13593444,24040
13595446,23124
13597447,23229
13599449,23358
13601450,23211
13603453,23604
13605455,23051
13607455,23268
13609459,23448
13611462,23193
13613464,21850
13615464,17414
13617466,17736
13619469,17588
13621469,17431
13623469,17459
13625473,17197
13627476,17719
13629478,18298
13631481,18669
13633484,19872
13635485,21235
13637485,21315
13639485,21029
13641487,19191
13643491,19582
13645494,19254
13647494,17790
13649495,17402
13651497,16292
13653500,16381
13655503,15833
13657506,15456
13659507,15880
13661507,15533
13663507,15938
13665510,15770
13667513,15898
13669515,16257
13671516,15928
13673516,16092
13675519,15783
13677521,15670
13679522,15958
13681522,15594
13683522,15852
13685525,16295
13687527,16300
13689530,17336
13691530,16094
13693532,14467
13695535,9500
13697536,11161
13699540,15443
13701540,33211
13703541,47364
13705541,62920
13707543,62984
13709545,56587
13711549,34878
13713553,8293
13715557,4769
13717560,3957
13719561,10421
13721565,12491
13723565,15445
13725567,16131
13727569,15899
13729572,15942
13731576,15298
13733580,15513
13735583,15414
13737585,15298
13739587,15731
13741589,15561
13743589,16479
13745593,16631
13747595,16263
13749596,16357
13751600,16565
13753603,17294
13755606,16987
13757609,16868
13759613,17383
13761613,17437
13763614,17967
13765617,18395
13767619,18382
13769620,19033
13771621,18909
13773622,19424
13775625,19890
13777627,19813
13779627,20334
13781629,20362
13783631,20906
13785632,21650
13787635,21617
13789638,22480
13791641,23024
13793643,23858
13795646,24236
13797649,23731
13799651,24983
13801654,25370
13803657,26279
13805660,26896
13807662,27063
13809665,27596
13811667,27422
13813668,28023
13815670,28525
13817673,27462
13819675,27628
13821679,26007
13823681,26003
13825681,25659
13827682,23870
13829682,23664
13831683,22771
13833687,22216
13835691,21413
13837691,20587
13839693,21088
13841696,20202
13843697,20289
13845698,19936
13847699,19512
13849699,19974
13851702,19611
13853702,19631
13855705,19518
13857707,19141
13859711,20020
13861714,19998
13863714,20219
13865715,20018
13867715,19494
13869715,19972
13871715,19904
13873717,20090
13875718,20265
13877720,19812
13879722,20371
13881724,19801
13883726,19900
13885728,20318
13887729,19884
13889730,20074
13891734,19792
13893734,19368
13895734,19118
13897734,18450
13899736,19125
13901737,19075
13903738,18920
13905739,19208
13907741,18803
13909743,19140
13911745,19109
13913745,20487
13915748,22441
13917751,22082
13919755,22578
13921758,22695
13923761,21687
13925764,22370
13927766,22099
13929767,23357
13931770,24601
13933773,25138
13935775,27795
13937777,27226
13939781,27048
13941782,25125
13943783,24360
13945783,25064
13947785,22307
13949788,21724
13951788,21349
13953791,20233
13955791,20177
13957793,19625
13959796,20164
13961796,20267
13963800,19831
13965800,20337
13967800,20225
13969801,20461
13971803,20633
13973803,19843
13975805,20320
13977807,20110
13979809,20094
13981810,20287
13983813,19811
13985813,20970
13987815,21194
13989815,21843
13991815,19613
13993816,17739
13995816,11186
13997817,15932
13999817,19058
14001819,44423
14003822,63245
14005822,63059
14007824,62982
14009826,59421
14011826,45441
14013826,9458
14015826,5446
14017828,4411
14019831,13103
14021831,17648
14023833,19442
14025836,20611
14027839,20219
14029842,20073
14031845,19603
14033846,19318
14035846,19906
14037849,19767
14039851,19845
14041852,20330
14043855,20869
14045859,21368
14047860,21261
14049860,20358
14051861,21622
14053865,21688
14055868,21754
14057871,21876
14059874,21692
14061876,22497
14063879,22788
14065882,23468
14067884,24194
14069887,24024
14071891,24677
14073893,24447
14075893,25521
14077895,26042
14079897,25508
14081900,26822
14083900,26752
14085900,27743
14087904,28506
14089907,28404
14091909,30449
14093912,30365
14095913,31028
14097916,31405
14099919,32188
14101920,33438
14103920,33862
14105924,35113
14107926,35318
14109928,35264
14111930,36402
14113931,36031
14115931,36829
14117933,36154
14119936,35345
14121940,34608
14123943,33037
14125946,33386
14127946,31092
14129949,30086
14131950,30127
14133952,27706
14135955,27253
14137956,26575
14139958,26558
14141961,26396
14143963,25599
14145966,25812
14147969,25545
14149969,25454
14151970,25742
14153973,24613
14155977,25044
14157978,24727
14159979,25491
14161981,26161
14163982,25552
14165985,25848
14167986,25621
14169988,25478
14171988,26079
14173991,25507
14175994,26117
14177995,25934
14179997,25756
14181998,25845
14183998,25395
14186001,26043
14188004,25939
14190006,25430
14192008,25787
14194009,24488
14196011,24467
14198013,24134
14200015,24250
14202015,24677
14204016,24108
14206018,24623
14208020,24755
14210057,24579
14212059,24545
14214059,22420
14216061,22182
14218063,21767
14220063,22259
14222066,22390
14224069,21319
14226073,22021
14228075,21744
14230077,23059
14232077,24605
14234080,24769
14236082,27479
14238082,26846
14240082,26606
14242082,24671
14244084,24064
14246087,24689
14248090,21957
14250091,21204
14252095,20980
14254095,19816
14256099,20072
14258099,19661
14260103,20159
14262106,20269
14264109,19795
14266111,20317
14268111,20060
14270111,20153
14272111,20289
14274111,19792
14276112,20287
14278114,20134
14280117,20094
14282117,20333
14284120,19850
14286122,20791
14288124,20879
14290128,21385
14292128,19057
14294128,17694
14296128,11090
14298128,17375
14300128,19117
14302129,44744
14304129,62965
14306129,63012
14308133,62945
14310137,54088
14312137,44853
14314138,8563
14316138,5135
14318140,4407
14320140,13262
14322142,18348
14324143,19400
14326145,20279
14328145,20200
14330146,19970
14332146,19565
14334150,19504
14336153,19912
14338153,19833
14340153,19803
14342154,20347
14344156,20627
14346157,20924
14348158,20950
14350160,19892
14352160,21321
14354163,21505
14356167,21295
14358168,21613
14360170,21214
14362173,22163
14364173,22589
14366175,22979
14368175,23899
14370176,23594
14372177,24329
14374178,24343
14376181,25203
14378182,25733
14380182,25133
14382182,26555
14384186,26574
14386187,27174
14388189,28417
14390192,28008
14392192,30026
14394195,30375
14396198,30349
14398201,31253
14400202,31732
14402205,33005
14404207,33795
14406210,34353
14408213,35167
14410214,34733
14412215,35991
14414217,36021
14416220,36191
14418221,35944
14420224,34756
14422224,34175
14424228,32870
14426231,32796
14428232,30926
14430233,29436
14432233,29782
14434235,27673
14436235,26684
14438235,26486
14440236,25850
14442238,25953
14444238,25533
14446239,25074
14448239,25466
14450242,24818
14452244,25403
14454246,24637
14456250,24308
14458253,24651
14460257,24761
14462257,25717
14464258,25563
14466260,25108
14468262,25393
14470262,24708
14472265,25596
14474269,25579
14476270,25283
14478272,25763
14480273,25220
14482276,25376
14484280,25527
14486283,25431
14488284,25753
14490287,24892
14492290,25349
14494293,24416
14496295,23873
14498296,23966
14500298,23690
14502298,24270
14504298,24092
14506300,23909
14508304,24286
14510307,23709
14512308,24291
14514311,21862
14516315,21251
14518317,21397
14520317,21148
14522320,21752
14524322,20853
14526325,21012
14528328,21322
14530328,21900
14532330,24022
14534334,24416
14536336,25924
14538338,25924
14540339,25152
14542339,23942
14544343,23765
14546346,23536
14548348,21438
14550350,20074
14552354,20319
14554358,19430
14556360,19086
14558364,19188
14560366,19069
14562367,19583
14564367,19403
14566368,19266
14568369,19580
14570371,19140
14572371,19531
14574374,19478
14576376,19220
14578379,19599
14580379,19196
14582382,19498
14584384,19463
14586387,19711
14588388,20320
14590389,20646
14592393,18496
14594395,17324
14596396,10565
14598399,16678
14600399,18511
14602401,42184
14604403,62998
14606405,62953
14608408,62967
14610409,52441
14612412,40803
14614415,8127
14616417,5183
14618420,4407
14620424,12665
14622427,17541
14624429,19027
14626432,19246
14628433,19585
14630437,19150
14632438,18788
14634441,18881
14636445,18784
14638447,19245
14640450,19170
14642451,19474
14644451,20263
14646454,19824
14648458,20274
14650459,19336
14652463,20636
14654465,20922
14656468,20162
14658469,21006
14660472,20773
14662474,21237
14664475,22167
14666477,21924
14668477,23143
14670480,23295
14672483,23354
14674483,23961
14676485,24171
14678487,24973
14680487,24819
14682489,25211
14684491,25827
14686493,25830
14688493,27330
14690496,27572
14692499,28521
14694502,29685
14696504,29176
14698505,30088
14700507,31096
14702507,31069
14704507,32643
14706510,32787
14708511,33647
14710511,33911
14712513,34058
14714513,34858
14716515,34573
14718515,34329
14720516,33759
14722518,32095
14724521,31859
14726521,30708
14728523,29760
14730525,28641
14732528,28256
14734531,26907
14736532,25126
14738532,25322
14740534,25215
14742535,24643
14744535,24975
14746537,24176
14748541,24579
14750544,24545
14752544,24162
14754546,24083
14756548,23496
14758550,23875
14760553,24765
14762556,24491
14764559,25046
14766561,24260
14768561,24543
14770563,24596
14772565,24345
14774567,25031
14776568,24623
14778569,24881
14780573,24870
14782576,24086
14784576,25001
14786578,24597
14788579,24893
14790583,24651
14792586,23933
14794589,24008
14796591,22987
14798593,23155
14800597,23445
14802598,23072
14804599,23580
14806601,23243
14808604,23534
14810606,23467
14812607,23035
14814610,21220
14816613,20265
14818615,20575
14820615,20879
14822618,20517
14824621,20694
14826623,20307
14828624,20644
14830626,21686
14832628,22910
14834629,24091
14836631,25391
14838633,24945
14840635,24749
14842638,22683
14844638,23223
14846641,22525
14848643,20599
14850645,20022
14852648,19374
14854651,19217
14856654,18098
14858656,18500
14860658,18760
14862661,18402
14864664,18850
14866667,18573
14868669,19021
14870673,19114
14872673,18718
14874677,18911
14876680,18530
14878682,18740
14880686,18792
14882690,18443
14884693,18888
14886696,19523
14888698,20016
14890698,20609
14892698,17131
14894701,15035
14896701,10032
14898702,16407
14900702,23468
14902705,41492
14904705,62998
14906707,62987
14908709,62702
14910713,48088
14912714,34823
14914714,7433
14916715,4715
14918718,6688
14920718,12720
14922719,17329
14924719,18680
14926720,18903
14928722,18754
14930722,18690
14932722,17702
14934724,18424
14936724,18287
14938725,18273
14940727,18634
14942728,18540
14944731,19888
14946731,19752
14948732,19560
14950732,19212
14952735,19961
14954738,20525
14956740,20153
14958742,20349
14960745,20687
14962748,20139
14964749,21602
14966749,21850
14968749,22129
14970751,22785
14972752,22465
14974755,23105
14976757,23999
14978758,23799
14980761,24268
14982764,24349
14984764,25088
14986766,25603
14988769,26115
14990769,27175
14992771,27381
14994774,28475
14996777,28611
14998780,28564
15000783,30706
15002783,30545
15004783,31460
15006785,32338
15008786,32104
15010786,33075
15012790,32889
15014793,33739
15016796,33863
15018799,32673
15020800,32631
15022804,30836
15024807,30990
15026810,29797
15028812,28467
15030812,28017
15032815,26660
15034818,26193
15036821,24563
15038822,24456
15040824,24565
15042825,23741
15044828,24242
15046828,23624
15048828,23714
15050830,23894
15052833,23356
15054833,23296
15056836,22915
15058838,22964
15060840,24138
15062840,23685
15064840,24328
15066843,23733
15068845,23729
15070847,23933
15072848,23662
15074848,24290
15076851,24051
15078851,24018
15080851,24166
15082854,23356
15084857,24232
15086857,24071
15088861,23994
15090862,23993
15092865,23098
15094868,23245
15096869,22362
15098873,22426
15100875,22780
15102875,22296
15104876,22819
15106879,22642
15108881,22630
15110881,22784
15112885,22328
15114885,19051
15116887,18308
15118887,18307
15120887,18782
15122891,18254
15124894,18555
15126895,18297
15128899,18466
15130901,19577
15132904,20545
15134907,21660
15136907,22621
15138911,22173
15140913,21912
15142916,20170
15144917,20643
15146920,19747
15148924,18335
15150927,17826
15152927,17018
15154928,16994
15156931,16558
15158934,16585
15160934,16991
15162934,16662
15164936,16963
15166938,16932
15168939,16707
15170943,17006
15172944,16692
15174945,16986
15176945,16906
15178945,16675
15180948,17003
15182950,16711
15184952,16936
15186954,17613
15188955,17572
15190957,18522
15192960,15266
15194960,12579
15196962,9339
15198963,14951
15200964,24507
15202968,37179
15204972,62854
15206972,62976
15208976,63012
15210979,41482
15212980,25688
15214981,6681
15216981,4185
15218982,6925
15220985,11398
15222986,15900
15224987,16720
15226987,16964
15228988,16601
15230991,16708
15232994,16040
15234996,16542
15236998,16596
15239001,16289
15241004,16978
15243005,16995
15245007,17634
15247011,17668
15249014,17064
15251014,17034
15253018,18090
15255018,18182
15257021,18071
15259025,18029
15261027,18394
15263028,18224
15265028,19359
15267032,19673
15269035,19479
15271036,20305
15273039,20114
15275043,20482
15277043,21245
15279043,20848
15281046,21451
15283046,22029
15285046,22472
15287048,22759
15289052,23259
15291055,24456
15293058,24580
15295059,25490
15297063,25711
15299066,25247
15301069,27178
15303071,27337
15305075,28136
15307078,28835
15309080,28605
15311082,29430
15313082,29514
15315083,30012
15317086,30010
15319088,28899
15321091,28939
15323094,27771
15325094,27263
15327097,26347
15329099,25335
15331099,24661
15333102,23376
15335103,23214
15337103,22050
15339103,21674
15341106,22187
15343110,20975
15345111,21321
15347114,21261
15349117,21078
15351117,21413
15353118,21026
15355118,20645
15357120,20531
15359120,20254
15361121,21375
15363123,21006
15365127,21350
15367129,21293
15369131,20920
15371133,21422
15373137,21020
15375137,21281
15377137,21295
15379140,20884
15381142,21389
15383142,21026
15385143,21210
15387145,21310
15389147,20868
15391148,21387
15393148,20709
15395148,20541
15397151,19968
15399151,19693
15401155,20325
15403158,20090
15405161,20149
15407162,20222
15409162,19759
15411164,20316
15413168,20088
15415170,19819
15417172,19915
15419175,19435
15421175,20283
15423175,19721
15425175,19346
15427177,19922
15429177,20059
15431177,20992
15433181,22526
15435184,23088
15437186,24671
15439187,23913
15441190,23313
15443191,21993
15445195,21842
15447197,21111
15449197,19466
15451201,19286
15453205,18575
15455206,18250
15457208,17790
15459212,17486
15461212,18071
15463216,17967
15465216,17891
15467218,18137
15469218,18073
15471221,18439
15473225,18340
15475226,17854
15477228,18138
15479230,17784
15481231,18055
15483234,17974
15485238,17830
15487241,19129
15489244,18987
15491248,19489
15493248,16419
15495250,12282
15497253,9689
15499253,16547
15501255,30580
15503258,41117
15505258,62970
15507261,63080
15509263,63007
15511264,42784
15513264,22544
15515264,6950
15517266,4141
15519267,8371
15521270,12191
15523271,17170
15525273,17940
15527274,18470
15529274,17708
15531277,17652
15533277,17221
15535280,17487
15537280,17771
15539283,17429
15541287,18045
15543288,18524
15545288,18789
15547292,19165
15549294,18422
15551296,18448
15553296,19408
15555299,18912
15557303,19195
15559305,19159
15561307,19693
15563311,19819
15565314,20509
15567317,21501
15569319,21403
15571321,21699
15573321,21900
15575321,21645
15577322,23148
15579324,22838
15581325,23127
15583325,24162
15585326,23880
15587326,24681
15589328,25333
15591331,26151
15593335,26812
15595339,26908
15597342,27830
15599345,27483
15601348,29157
15603352,30075
15605353,29858
15607356,31573
15609358,31098
15611362,31403
15613366,32102
15615366,31859
15617369,32697
15619371,31018
15621373,30887
15623374,30315
15625377,28991
15627378,28324
15629381,27000
15631381,26446
15633384,25387
15635386,24685
15637387,24014
15639389,23460
15641392,23936
15643393,23075
15645396,22616
15647398,22886
15649401,22269
15651401,22756
15653404,22691
15655407,21886
15657409,22124
15659412,21542
15661415,23115
15663417,23007
15665420,22814
15667422,22871
15669425,22296
15671426,22782
15673429,23010
15675431,22854
15677431,23190
15679432,22684
15681432,22912
15683435,22659
15685439,22840
15687441,23215
15689442,22704
15691443,22872
15693446,22091
15695448,21820
15697449,21782
15699450,21246
15701453,21768
15703455,21622
15705458,21438
15707460,21778
15709460,21373
15711460,21678
15713463,21511
15715466,21307
15717467,21820
15719469,21367
15721470,22020
15723472,21584
15725473,20874
15727476,21758
15729480,22043
15731481,22722
15733481,24488
15735481,25549
15737483,26850
15739486,25790
15741487,24735
15743487,23928
15745491,23416
15747494,22582
15749497,21441
15751500,20647
15753502,20072
15755506,19535
15757508,19242
15759509,19117
15761509,19499
15763512,19450
15765512,19141
15767516,19587
15769518,19583
15771518,19833
15773519,19856
15775520,19125
15777523,19721
15779524,19278
15781525,19454
15783527,19502
15785530,19077
15787532,20660
15789534,20836
15791534,21178
15793537,17518
15795540,12314
15797540,10452
15799541,18250
15801541,35664
15803542,44131
15805545,63008
15807546,63071
15809549,62898
15811551,45006
15813553,19913
15815553,7226
15817554,4564
15819555,10304
15821555,13259
15823558,18814
15825561,19200
15827562,19984
15829564,19323
15831565,18935
15833569,18787
15835571,18871
15837572,19230
15839574,18957
15841578,19483
15843581,20200
15845584,20154
15847584,20680
15849586,19851
15851586,19827
15853586,21302
15855586,20641
15857587,21069
15859590,21121
15861594,21482
15863594,21748
15865597,22266
15867599,23143
15869602,22919
15871603,23384
15873606,23829
15875610,23372
15877613,25008
15879615,24737
15881618,24795
15883620,26006
15885620,25908
15887623,26910
15889624,27594
15891626,28697
15893626,29387
15895629,29400
15897630,30148
15899630,29763
15901632,31524
15903633,32740
15905634,32298
15907636,34041
15909638,33932
15911642,34168
15913645,35115
15915645,34689
15917647,35605
15919650,34034
15921653,33284
15923656,32957
15925658,31363
15927660,30682
15929662,29585
15931664,28989
15933668,27590
15935672,26777
15937675,25836
15939678,25186
15941679,25733
15943682,24846
15945685,24355
15947686,24674
15949689,24082
15951692,24631
15953693,24471
15955696,23569
15957699,23933
15959702,23413
15961704,24943
15963704,24823
15965708,24622
15967711,24631
15969714,24026
15971717,24668
15973720,24801
15975723,24693
15977726,25052
15979727,24397
15981731,24745
15983731,24425
15985733,24673
15987736,25007
15989738,24423
15991739,24644
15993743,23895
15995745,23645
15997747,23227
15999749,22924
16001753,23561
16003756,23314
16005756,23219
16007758,23585
16009761,23027
16011761,23560
16013761,23385
16015762,21887
16017766,22138
16019768,21590
16021768,22435
16023770,21794
16025774,21448
16027775,22124
16029776,22466
16031779,23267
16033782,25138
16035785,26610
16037788,27616
16039790,26339
16041793,25268
16043796,24469
16045799,24284
16047802,22782
16049804,21584
16051807,21040
16053811,20295
16055814,20120
16057815,20010
16059816,19731
16061816,20321
16063820,20140
16065823,20035
16067824,20339
16069827,19843
16071827,20317
16073829,20164
16075832,20000
16077834,20301
16079837,19847
16081838,20274
16083838,20172
16085841,19990
16087844,21015
16089845,21204
16091848,21487
16093852,18093
16095854,12151
16097855,11702
16099858,18873
16101860,40060
16103863,47275
16105864,62988
16107864,62951
16109864,63029
16111866,45824
16113866,15659
16115870,6956
16117871,4503
16119873,11565
16121874,14185
16123875,19488
16125875,20061
16127877,20269
16129879,19791
16131880,19704
16133884,19434
16135887,19736
16137890,19941
16139892,19444
16141894,20289
16143894,20668
16145898,20825
16147900,20961
16149903,19936
16151903,20405
16153903,21582
16155905,21148
16157909,21455
16159910,21230
16161913,22071
16163913,22143
16165915,22731
16167919,23849
16169921,23461
16171924,24282
16173926,24407
16175929,24225
16177929,25740
16179929,25234
16181932,25761
16183932,26674
16185933,26970
16187934,27695
16189937,28124
16191941,29715
16193941,30022
16195941,30244
16197944,31187
16199947,30819
16201947,32874
16203947,33771
16205949,33565
16207949,35202
16209949,34864
16211950,35565
16213954,36107
16215957,35900
16217960,36709
16219962,34890
16221963,34259
16223965,33759
16225969,32609
16227969,31244
16229969,30053
16231971,29787
16233973,28031
16235973,27282
16237975,26526
16239975,25929
16241975,26313
16243975,25635
16245975,25012
16247979,25398
16249982,24882
16251985,25353
16253985,25147
16255988,24171
16257991,24648
16259992,24283
16261992,25652
16263992,25620
16265995,25146
16267996,25446
16269999,24892
16272002,25423
16274003,25645
16276004,25184
16278007,25830
16280008,25376
16282012,25362
16284012,25371
16286016,25118
16288018,25785
16290019,25022
16292020,25254
16294023,24682
16296026,24033
16298028,23994
16300045,23699
16302045,24261
16304049,24080
16306052,23925
16308053,24366
16310054,23719
16312057,24258
16314060,23650
16316063,20763
16318065,21016
16320069,20586
16322071,21385
16324074,20593
16326074,20461
16328076,21056
16330076,21430
16332078,22570
16334079,23727
16336081,25332
16338081,26090
16340084,24856
16342084,23552
16344085,23095
16346087,22762
16348090,21426
16350093,20337
16352095,19900
16354097,19137
16356098,18774
16358099,18895
16360099,18793
16362102,19098
16364103,19107
16366105,18901
16368107,19242
16370107,18895
16372108,19121
16374108,19177
16376111,18682
16378114,19247
16380117,18903
16382117,18983
16384117,19138
16386120,18816
16388120,19942
16390123,20338
16392126,19689
16394129,17058
16396131,11104
16398132,12619
16400135,18150
16402135,38861
16404136,50279
16406139,63027
16408143,62918
16410146,62894
16412149,42669
16414151,12419
16416154,6190
16418156,4462
16420158,11504
16422159,14400
16424162,18616
16426163,18774
16428165,19169
16430166,18838
16432166,18453
16434167,18430
16436171,18358
16438173,18833
16440174,18738
16442174,18888
16444177,19804
16446179,19416
16448179,19969
16450181,19122
16452183,19039
16454185,20595
16456187,19840
16458190,20329
16460194,20461
16462194,20731
16464194,21026
16466196,21546
16468197,22618
16470200,22612
16472204,22906
16474206,23184
16476208,22641
16478210,24214
16480212,24102
16482212,23987
16484213,25369
16486215,25355
16488218,26118
16490218,27026
16492219,27546
16494222,28374
16496226,28340
16498227,29410
16500227,29449
16502230,30553
16504230,31750
16506233,31284
16508233,32895
16510233,33149
16512234,32787
16514236,34176
16516240,33728
16518241,34374
16520245,33221
16522246,31744
16524249,31885
16526250,30578
16528251,29452
16530255,28660
16532256,27610
16534256,26848
16536259,25873
16538261,25068
16540264,24783
16542264,24769
16544264,24347
16546266,23506
16548268,23910
16550270,23800
16552273,23616
16554275,23846
16556277,22702
16558278,23135
16560282,23150
16562285,23923
16564286,24317
16566288,23713
16568289,23939
16570290,23833
16572294,23464
16574295,24288
16576297,23754
16578300,24258
16580301,24157
16582303,23532
16584303,23989
16586306,23845
16588306,24200
16590309,24127
16592312,23456
16594313,23354
16596315,22734
16598317,22752
16600319,23043
16602321,22677
16604323,23220
16606326,22807
16608328,23065
16610328,23075
16612330,22688
16614334,23199
16616335,22139
16618336,22381
16620337,22453
16622339,22279
16624342,22312
16626343,21890
16628346,22335
16630348,23300
16632352,23008
16634354,25775
16636356,27126
16638360,27724
16640364,27239
16642366,24917
16644366,25038
16646366,24738
16648366,22791
16650367,22361
16652367,20877
16654370,20820
16656372,20323
16658375,19778
16660378,20259
16662381,19801
16664384,20317
16666385,20024
16668386,20100
16670386,20629
16672389,20114
16674393,20629
16676394,20150
16678395,20094
16680398,20286
16682401,19796
16684405,20254
16686407,20305
16688409,21118
16690409,21987
16692412,21006
16694412,18164
16696414,11849
16698417,11700
16700418,19334
16702418,41289
16704422,51167
16706424,63022
16708426,62974
16710426,63012
16712426,45379
16714430,14104
16716433,6624
16718433,4460
16720433,12171
16722434,14332
16724437,19793
16726439,20345
16728441,20293
16730444,20313
16732445,19258
16734449,19529
16736452,19742
16738454,19667
16740454,20036
16742457,19836
16744461,21132
16746462,21209
16748464,21045
16750466,20807
16752466,20464
16754466,22007
16756468,21763
16758469,21334
16760472,22132
16762474,22071
16764476,22642
16766478,23498
16768481,23606
16770484,24461
16772484,24286
16774487,24789
16776487,25063
16778488,25432
16780489,26141
16782491,25901
16784492,26978
16786492,27807
16788494,27434
