10,18054
2010,18462
4014,18225
6018,18682
8020,19007
10022,19089
12025,19590
14029,19142
16032,18726
18034,20020
20035,19692
22037,19954
24038,19994
26039,20117
28043,20640
30045,21064
32047,21848
34050,21927
36050,22063
38054,22570
40054,22290
42057,23774
44057,23757
46057,23560
48059,24871
50060,24633
52060,25284
54062,26194
56064,26087
58067,27896
60075,27944
62076,28574
64076,28513
66079,29633
68082,30734
70085,30940
72088,32057
74091,32228
76091,32029
78092,33318
80092,32845
82094,33612
84096,32583
86099,31810
88100,31615
90103,30078
92105,29979
94109,28481
96112,27339
98115,27081
100117,25171
102120,24771
104120,24414
106121,24234
108122,24009
110123,23267
112125,23544
114127,23224
116129,23179
118129,23586
120130,22518
122131,22769
124132,22705
126135,23283
128138,23953
130141,23428
132143,23588
134145,23424
136147,23120
138149,23871
140150,23540
142154,23861
144156,23830
146157,23111
148157,23594
150161,23440
152162,23833
154162,23850
156162,23053
158162,23384
160163,22471
162166,22082
164167,22169
166169,21971
168173,22502
170174,22105
172176,22378
174176,22408
176178,21910
178182,22509
180185,20632
182188,20551
184189,20611
186189,20430
188192,20933
190192,20430
192196,20530
194199,20944
196203,21178
198203,23682
200204,24250
202204,25362
204204,25080
206204,23777
208204,23219
210206,22983
212208,21892
214210,20679
216213,19527
218214,19691
220215,19074
222218,18352
224222,18588
226223,18387
228223,18784
230225,18748
232227,18459
234230,19161
236233,18774
238234,19149
240234,18777
242237,18418
244239,18833
246242,18466
248245,18770
250246,18705
252248,19370
254248,20146
256248,20338
258249,17383
260252,14686
262256,9966
264259,17104
266259,25780
268259,41670
270262,62934
272263,62938
274265,62992
276265,45951
278268,27187
280272,7052
282275,4695
284275,7100
286279,12524
288280,17725
290284,18606
292287,18812
294288,18874
296290,18237
298290,18072
300293,18344
302295,18060
304299,18484
306299,18459
308299,19186
310302,19872
312306,19472
314310,19597
316310,18905
318312,20428
320314,20405
322316,19827
324316,20635
326316,20321
328318,20565
330322,21570
332323,21471
334327,22486
336331,22478
338335,22795
340337,23107
342340,23628
344342,24331
346343,23909
348344,24707
350345,25320
352345,25074
354349,26793
356349,27077
358349,27703
360352,28577
362354,28093
364357,29029
366360,30242
368364,30806
370365,31528
372369,31838
374371,32859
376371,32557
378374,33452
380377,33803
382378,33394
384381,33142
386383,31688
388384,31459
390384,30774
392386,29354
394389,28724
396391,27556
398395,27086
400397,26004
402397,24262
404397,24662
406398,24218
408398,24219
410401,24068
412401,23426
414405,23991
416405,23586
418405,23764
420406,23223
422407,22651
424410,23243
426414,23881
428417,24155
430418,24192
432420,23392
434423,23939
436427,23565
438431,24114
440434,24254
442435,23496
444435,24278
446437,23710
448437,23800
450439,24153
452442,23683
454442,24337
456442,23658
458444,23349
460446,23193
462450,22005
464452,22642
466452,22512
468453,22589
470454,22791
472454,22219
474457,22814
476457,22622
478458,22539
480462,21125
482465,20471
484465,21009
486467,21168
488469,20819
490473,20643
492476,20449
494477,21363
496480,21932
498483,23384
500483,24967
502483,25467
504484,25340
506487,25272
508488,23079
510488,23209
512491,22787
514492,21258
516493,20543
518493,19531
520495,19271
522499,18733
524501,18781
526503,19077
528503,18712
530505,19197
532507,18903
534508,19069
536510,19149
538511,18687
540515,19188
542515,18968
544519,19009
546520,19158
548520,18726
550522,19150
552526,19268
554528,19627
556563,20457
558563,18869
560566,17061
562567,10887
564567,13879
566568,18346
568570,39869
570571,56244
572571,63136
574574,62975
576576,63044
578576,41919
580579,10526
582579,5782
584579,4397
586581,12011
588581,14817
590583,18760
592587,18887
594590,19039
596592,19119
598595,18099
600596,18648
602599,18527
604602,18696
606604,18989
608607,18680
610608,19843
612608,19704
614608,19715
616609,19222
618610,19235
620610,20575
622611,20211
624618,20200
626620,20631
628621,20533
630623,21434
632625,21964
634626,22358
636629,22967
638633,22682
640635,23113
642635,23592
644635,23793
646635,24327
648635,24481
650638,25204
652638,26000
654638,25835
656640,27266
658640,27761
660642,28352
662645,28937
664646,28705
666646,30193
668649,30764
670650,31491
672653,32491
674653,32281
676655,33355
678659,33360
680660,33703
682662,34421
684664,33137
686667,33404
688667,31614
690668,31409
692668,31134
694668,28620
696671,28573
698674,27494
700675,26460
702678,25663
704678,24436
706679,24993
708679,24325
710679,23990
712681,23903
714685,23352
716687,23958
718690,23662
720693,23336
722694,23197
724694,22606
726695,23670
728697,24007
730700,24011
732703,24094
734703,23381
736704,23906
738708,23885
740710,23945
742710,24339
744710,23755
746712,24228
748713,23821
750717,23761
752720,24288
754723,23752
756725,23929
758727,23739
760729,22890
762730,23058
764733,22324
766733,23095
768733,23076
770735,22702
772738,23219
774742,22732
776744,23076
778745,23073
780747,21721
782748,21390
784748,21075
786752,21370
788756,21680
790757,20615
792760,21182
794760,21092
796761,22223
798761,23476
800764,23978
802765,26317
804769,25796
806771,25680
808772,24022
810775,23362
812778,23927
814781,21287
816785,20619
818787,20353
820787,19125
822791,19416
824794,18926
826797,19330
828798,19535
830801,19000
832803,19543
834803,19345
836805,19346
838809,19537
840812,19053
842815,19625
844815,19404
846815,19292
848816,19537
850819,19111
852820,19974
854823,20141
856825,20596
858825,19296
860827,17051
862829,10951
864831,14678
866832,18295
868834,41750
870836,63061
872838,63041
874841,63067
876843,59552
878846,43312
880846,9312
882847,5366
884849,4412
886849,12547
888850,16151
890850,18634
892851,19441
894853,19396
896855,19258
898855,18901
900858,18669
902861,19149
904864,19059
906865,18992
908868,19579
910872,19857
912872,20239
914874,20204
916876,19190
918877,20453
920878,20713
922879,20551
924883,20805
926886,20445
928887,21338
930888,21690
932890,22195
934891,23119
936891,22804
938891,23568
940891,23710
942893,24137
944894,25024
946894,24397
948894,25405
950896,25593
952899,25930
954899,27173
956902,26968
958903,28737
960907,29353
962909,29154
964910,30164
966912,30524
968913,31373
970917,32448
972920,32548
974921,33761
976921,33466
978922,34232
980922,34778
982924,34449
984925,34577
986928,33571
988931,32511
990935,31858
992935,30898
994938,29872
996940,28182
998943,28564
1000945,26751
1002971,25778
1004973,25413
1006975,24762
1008978,25127
1010980,24721
1012983,24411
1014984,24593
1016987,24036
1018987,24644
1020990,23941
1022994,23795
1024996,23909
1027000,24050
1029003,25095
1031007,24705
1033007,24537
1035007,24631
1037010,24093
1039013,24863
1041013,24789
1043025,24802
1045028,24958
1047029,24419
1049031,24669
1051032,24593
1053033,24719
1055036,24957
1057039,24039
1059042,24630
1061044,23697
1063045,23159
1065046,23185
1067047,22955
1069048,23624
1071048,23348
1073051,23280
1075054,23612
1077057,23033
1079060,23570
1081063,20946
1083064,19785
1085064,19959
1087064,19707
1089067,20275
1091069,19366
1093072,19510
1095073,19938
1097076,20168
1099078,21715
1101080,22298
1103080,24053
1105080,24159
1107080,23504
1109082,22163
1111084,21997
1113087,21661
1115087,20054
1117087,18886
1119089,18760
1121089,18113
1123091,17427
1125093,17752
1127097,17813
1129099,18027
1131101,18113
1133103,17667
1135103,18119
1137105,17912
1139107,17949
1141108,18085
1143108,17652
1145111,18118
1147111,17959
1149113,17925
1151117,18115
1153119,18125
1155121,18806
1157125,19378
1159125,16817
1161129,15912
1163130,9707
1165133,15258
1167133,17184
1169134,38447
1171135,63083
1173137,62780
1175138,63109
1177139,50056
1179139,39113
1181142,8269
1183146,4750
1185146,3930
1187149,11730
1189152,15871
1191152,17714
1193152,17730
1195154,18071
1197156,18011
1199159,17095
1201161,17652
1203165,17420
1205165,17686
1207165,18009
1209168,17694
1211170,18816
1213171,18574
1215171,18676
1217172,18143
1219175,18600
1221178,19548
1223181,18978
1225182,19249
1227183,19540
1229184,19416
1231185,20441
1233188,20472
1235188,21040
1237188,21674
1239190,21271
1241191,22064
1243191,22541
1245191,22368
1247195,22858
1249196,23125
1251200,23895
1253202,24481
1255203,24610
1257206,25425
1259209,26309
1261212,26980
1263215,27058
1265217,27028
1267220,28705
1269224,28449
1271228,29939
1273228,30785
1275228,30592
1277232,31283
1279234,31164
1281234,31808
1283236,32085
1285238,30819
1287242,31257
1289242,29561
1291244,29272
1293246,28903
1295246,26707
1297250,26768
1299254,25919
1301257,24685
1303260,23687
1305264,23211
1307264,23606
1309266,22533
1311269,22694
1313273,22354
1315273,22001
1317277,22518
1319278,22024
1321279,22296
1323280,22051
1325282,21598
1327285,22672
1329288,22394
1331290,22750
1333294,22467
1335298,21911
1337301,22504
1339302,22379
1341304,22708
1343306,22718
1345308,22288
1347309,22795
1349313,22183
1351315,22624
1353315,22733
1355319,22302
1357323,22627
1359327,22095
1361329,22036
1363332,21452
1365333,20918
1367333,21758
1369336,21295
1371339,21629
1373343,21647
1375344,21251
1377345,21750
1379348,21434
1381349,21623
1383349,21665
1385351,21253
1387354,22012
1389354,21900
1391355,21194
1393356,21640
1395359,21210
1397360,22724
1399363,24208
1401364,24605
1403366,27193
1405366,26025
1407366,26320
1409367,24219
1411370,23905
1413370,24078
1415372,21390
1417376,20910
1419377,20551
1421378,19564
1423379,19687
1425382,19168
1427384,19874
1429387,19888
1431387,19507
1433387,19936
1435390,19557
1437390,19870
1439393,19900
1441395,19450
1443398,19951
1445399,19596
1447401,19801
1449402,19863
1451403,19454
1453403,20535
1455403,20402
1457404,21121
1459407,18621
1461409,17278
1463412,11048
1465415,17076
1467415,18965
1469418,44090
1471419,63010
1473422,62952
1475422,63040
1477425,52511
1479427,39730
1481428,8009
1483431,5054
1485433,4403
1487437,12992
1489440,17983
1491442,19064
1493442,19944
1495442,19629
1497443,19807
1499446,19177
1501448,18973
1503451,19543
1505455,19308
1507456,19667
1509457,19999
1511459,20108
1513462,20635
1515464,20305
1517465,19791
1519467,21141
1521470,20782
1523471,20996
1525475,21142
1527478,21084
1529482,21755
1531485,22019
1533485,22824
1535485,23413
1537488,23553
1539488,24009
1541490,23733
1543492,25106
1545492,25210
1547492,24851
1549495,26283
1551498,26012
1553502,27109
1555502,27920
1557502,27903
1559505,29409
1561508,29409
1563510,30069
1565514,30367
1567518,31213
1569520,32402
1571523,32661
1573526,34148
1575528,34310
1577528,34172
1579529,35460
1581532,34941
1583535,35816
1585537,34730
1587538,34004
1589540,33454
1591543,31727
1593543,31734
1595544,29975
1597545,28714
1599547,28916
1601549,27029
1603551,26339
1605554,25917
1607556,25693
1609558,25525
1611559,24807
1613559,24995
1615562,24803
1617562,24411
1619563,25058
1621564,23929
1623568,24234
1625568,24180
1627572,24729
1629574,25417
1631577,24685
1633577,25010
1635578,24935
1637581,24528
1639585,25334
1641586,24881
1643590,25303
1645593,25221
1647597,24801
1649601,25018
1651602,24769
1653605,25351
1655609,25216
1657612,24681
1659615,24627
1661616,23720
1663620,23556
1665621,23542
1667621,23576
1669622,23958
1671624,23423
1673627,23902
1675631,23709
1677634,23582
1679636,23961
1681638,20297
1683641,20317
1685642,20142
1687642,20318
1689644,20643
1691646,19496
1693646,20221
1695647,20298
1697649,21117
1699652,22856
1701655,22987
1703658,25270
1705658,24609
1707662,23810
1709665,22943
1711667,22374
1713668,22127
1715672,20219
1717673,19354
1719673,19380
1721676,18468
1723678,18150
1725679,18094
1727679,18150
1729682,18503
1731685,18121
1733689,18432
1735693,18652
1737693,18414
1739697,18869
1741698,18126
1743701,18404
1745703,18431
1747706,18180
1749708,18470
1751711,18111
1753712,19169
1755715,19581
1757719,19533
1759721,17063
1761724,15336
1763727,10186
1765729,16429
1767730,22232
1769733,41144
1771734,63024
1773737,63095
1775738,62903
1777738,45667
1779741,30762
1781744,7132
1783746,4692
1785749,7195
1787753,12407
1789755,17494
1791758,17917
1793759,18783
1795763,18358
1797763,18125
1799763,17773
1801766,17702
1803770,18097
1805771,18027
1807775,18133
1809777,18864
1811779,19133
1813782,19503
1815783,19216
1817787,18500
1819787,19932
1821789,19556
1823791,19886
1825792,19815
1827795,19652
1829798,20317
1831801,20893
1833802,21479
1835802,22023
1837805,21943
1839805,22560
1841809,22426
1843811,23348
1845814,23281
1847816,23053
1849816,24542
1851818,24405
1853818,25234
1855822,25939
1857825,26054
1859827,27574
1861828,27715
1863831,28278
1865833,28555
1867836,29333
1869837,30535
1871839,30648
1873842,31706
1875842,31883
1877842,31634
1879844,33017
1881844,32641
1883845,33120
1885845,32312
1887848,31195
1889850,31267
1891851,29697
1893855,29222
1895857,28212
1897861,26750
1899862,26614
1901864,25314
1903868,24423
1905868,24174
1907869,23721
1909873,23679
1911874,23037
1913874,23131
1915877,23077
1917877,22700
1919879,23196
1921880,22466
1923883,22712
1925887,22752
1927890,22971
1929892,23578
1931896,23211
1933898,23099
1935901,23077
1937901,22666
1939902,23580
1941904,23199
1943906,23412
1945907,23536
1947910,22861
1949910,23232
1951911,23191
1953913,23405
1955914,23530
1957914,22634
1959914,23050
1961918,22568
1963920,21984
1965920,22173
1967922,21882
1969924,22473
1971924,22251
1973927,22193
1975931,22422
1977931,21931
1979935,22488
1981936,18420
1983937,17907
1985938,18101
1987942,17672
1989944,17925
1991945,17598
1993947,17800
1995948,18451
1997950,18395
1999953,20401
2001957,21012
2003960,21674
2005962,21811
2007965,20727
2009969,19966
2011972,19825
2013973,18937
2015974,18160
2017974,16781
2019977,16836
2021980,16547
2023983,15741
2025983,16076
2027987,15987
2029988,16277
2031990,16217
2033990,15930
2035991,16593
2037994,16422
2039995,16677
2041997,16279
2044000,15906
2046000,16293
2048003,15984
2050004,16217
2052006,16277
2054006,16442
2056006,17305
2058006,17558
2060008,14574
2062011,11730
2064012,8798
2066014,14967
2068014,25688
2070016,35287
2072016,62999
2074020,62961
2076023,63195
2078027,38489
2080030,23316
2082033,6170
2084033,4082
2086036,7294
2088040,10919
2090040,15300
2092040,16256
2094040,16329
2096040,16307
2098041,15774
2100044,15208
2102047,15903
2104050,15633
2106051,15831
2108055,16209
2110056,16271
2112057,17004
2114060,16797
2116061,16697
2118064,16689
2120067,17172
2122069,17558
2124071,17209
2126073,17459
2128073,17913
2130076,17680
2132079,18782
2134080,18915
2136081,18901
2138082,19531
2140086,19394
2142086,19878
2144086,20513
2146090,20144
2148093,20635
2150094,21331
2152095,21542
2154098,22017
2156102,22247
2158106,23536
2160108,23899
2162110,24467
2164110,24738
2166114,24419
2168118,26394
2170119,26500
2172121,26980
2174121,27856
2176122,27454
2178123,28282
2180125,28665
2182126,28723
2184128,29027
2186130,27684
2188132,27636
2190134,26913
2192135,26311
2194139,25573
2196142,24119
2198145,23995
2200146,22922
2202149,22252
2204151,21450
2206154,20857
2208156,21243
2210156,20499
2212157,20461
2214161,20659
2216164,20131
2218164,20596
2220164,20489
2222166,19675
2224169,19985
2226171,19496
2228172,20555
2230172,20579
2232173,20200
2234175,20701
2236176,20323
2238179,20555
2240180,20615
2242181,20148
2244184,20647
2246188,20371
2248188,20570
2250188,20599
2252192,20114
2254194,20669
2256195,20446
2258199,20463
2260202,20160
2262204,19468
2264204,19214
2266204,19208
2268204,19358
2270206,19567
2272208,19077
2274208,19506
2276210,19444
2278213,19188
2280215,19561
2282216,18504
2284216,18773
2286220,18740
2288223,18728
2290226,19051
2292228,18488
2294229,18733
2296232,19292
2298235,19483
2300236,21610
2302238,22326
2304240,23382
2306244,22778
2308248,21325
2310248,21000
2312250,20670
2314252,19622
2316255,18828
2318257,17720
2320258,17684
2322261,17241
2324264,16931
2326264,17215
2328267,16922
2330269,17401
2332270,17155
2334271,17245
2336271,17340
2338274,16860
2340276,17379
2342278,17196
2344281,17177
2346282,17332
2348284,16915
2350284,17301
2352284,17292
2354286,17758
2356288,18575
2358289,18456
2360289,15653
2362292,11357
2364294,9201
2366294,16046
2368297,29960
2370299,38081
2372300,63066
2374303,62997
2376303,63060
2378303,39785
2380306,18930
2382309,6413
2384310,4089
2386313,9010
2388315,11571
2390315,16673
2392317,17091
2394319,16966
2396320,17379
2398320,16645
2400324,16595
2402325,16936
2404329,16577
2406333,16998
2408334,17090
2410335,17620
2412337,18043
2414339,17606
2416339,17668
2418342,17155
2420343,18536
2422346,18536
2424347,17990
2426351,18800
2428351,18646
2430351,18583
2432354,19887
2434355,20002
2436359,20599
2438359,20497
2440361,20561
2442363,20996
2444364,21622
2446367,22029
2448367,21985
2450369,22325
2452370,23294
2454370,23153
2456374,24143
2458375,24877
2460377,24825
2462381,26089
2464381,25896
2466381,26321
2468382,27679
2470385,27773
2472389,28675
2474392,29260
2476393,29861
2478396,29950
2480399,29807
2482402,30685
2484403,30327
2486404,30010
2488405,29063
2490409,28071
2492412,27991
2494413,26214
2496414,26008
2498417,25274
2500420,23863
2502422,23890
2504425,22135
2506426,22396
2508428,22360
2510430,21639
2512432,21880
2514434,21409
2516435,21894
2518437,21635
2520438,21251
2522439,21074
2524443,20697
2526443,20905
2528444,21982
2530448,21571
2532448,22141
2534449,21461
2536451,21648
2538452,21706
2540452,21543
2542456,22131
2544456,21902
2546456,21879
2548456,21876
2550458,21263
2552458,22057
2554459,21965
2556462,21754
2558465,21772
2560468,20749
2562471,21082
2564472,20521
2566472,20267
2568476,20669
2570478,20166
2572480,20603
2574480,20534
2576483,20335
2578487,20679
2580489,20279
2582492,18596
2584494,18395
2586495,18139
2588499,18833
2590500,18258
2592504,18418
2594505,18386
2596508,18692
2598511,19577
2600511,20961
2602514,22260
2604514,22784
2606518,21955
2608519,21197
2610522,20390
2612522,20501
2614522,19926
2616522,18015
2618522,17867
2620522,17325
2622525,16842
2624528,16680
2626528,16339
2628532,17040
2630533,16862
2632535,16780
2634539,17006
2636542,16615
2638542,17005
2640546,16867
2642546,16810
2644550,16988
2646550,16585
2648551,17001
2650551,16871
2652552,16783
2654552,17644
2656554,17686
2658557,18395
2660560,15400
2662564,12624
2664566,9342
2666569,15278
2668571,24730
2670571,37374
2672575,63055
2674576,63028
2676579,63052
2678579,40750
2680582,25989
2682584,6681
2684587,4191
2686589,6648
2688592,11376
2690593,15946
2692594,16581
2694597,16772
2696597,16620
2698597,16648
2700597,16221
2702599,16291
2704601,16653
2706602,16357
2709429,16933
2711431,17672
2713434,17285
2715437,17673
2717440,16991
2719441,17034
2721443,18442
2723444,17792
2725447,18130
2727451,18362
2729452,18200
2731454,18798
2733455,19083
2735456,19817
2737456,19978
2739458,19851
2741461,20631
2743465,20442
2745468,21362
2747468,21225
2749471,21294
2751475,22434
2753475,22252
2755476,22924
2757477,23777
2759479,24259
2761481,25212
2763482,25242
2765485,25564
2767488,25985
2769489,26545
2771492,28226
2773494,28009
2775497,28892
2777497,29244
2779497,29003
2781499,30047
2783503,29623
2785505,29786
2787505,29348
2789508,27833
2791508,27984
2793509,26780
2795509,25830
2797509,25337
2799513,24120
2801515,23378
2803515,22441
2805518,22023
2807519,22032
2809522,21305
2811525,21411
2813527,20981
2815527,21238
2817531,21352
2819533,20916
2821534,21221
2823537,20308
2825538,20511
2827538,20848
2829539,20868
2831541,21393
2833542,21100
2835545,21192
2837548,21340
2839550,20818
2841552,21385
2843555,21120
2845558,21160
2847560,21330
2849562,20820
2851564,21389
2853565,21133
2855566,21194
2857566,21373
2859568,20845
2861570,20771
2863570,20184
2865574,19760
2867577,20261
2869579,19758
2871582,20303
2873585,20092
2875588,20052
2877591,20310
2879594,19783
2881595,20506
2883599,20770
2885602,20811
2887605,21104
2889606,20832
2891608,20757
2893609,20561
2895610,20759
2897610,21983
2899610,22256
2901612,23889
2903614,25679
2905614,25335
2907618,25411
2909619,22926
2911621,23143
2913622,23065
2915625,20863
2917627,20727
2919630,19547
2921634,19251
2923634,18958
2925638,18530
2927638,19146
2929642,18808
2931646,19196
2933650,19061
2935654,18820
2937657,19208
2939660,18714
2941662,19138
2943666,19025
2945669,18877
2947670,19210
2949670,18770
2951673,19131
2953674,19372
2955675,19442
2957678,20585
2959679,19047
2961682,17022
2963683,11074
2965683,13218
2967683,18356
2969685,40131
2971686,57511
2973687,63089
2975688,63053
2977689,63036
2979693,42066
2981694,9803
2983696,5799
2985700,4439
2987703,12027
2989706,14731
2991709,18751
2993712,18997
2995714,18874
2997718,19190
2999720,18099
3001721,18602
3003724,18652
3005728,18560
3007731,18973
3009735,18768
3011736,19837
3013736,19825
3015737,19639
3017739,19247
3019739,19651
3021743,20555
3023745,20225
3025746,19974
3027748,20684
3029750,20618
3031751,21335
3033752,22049
3035752,22208
3037752,22987
3039753,22872
3041756,23017
3043756,23695
3045756,23681
3047760,24272
3049762,24581
3051764,25086
3053767,25998
3055767,26045
3057767,27172
3059770,27997
3061772,28201
3063775,29052
3065778,28665
3067781,30161
3069782,31083
3071784,31339
3073784,32438
3075784,32327
3077784,33298
3079785,33450
3081787,33526
3083787,34471
3085790,33101
3087793,33326
3089795,31802
3091798,31132
3093802,31201
3095802,28490
3097802,28557
3099802,27758
3101804,26245
3103805,25742
3105808,24436
3107808,25030
3109811,24451
3111814,23980
3113815,23984
3115818,23362
3117822,23950
3119825,23693
3121829,23257
3123830,23167
3125830,22636
3127831,23777
3129835,24149
3131835,23831
3133835,24154
3135839,23450
3137841,23885
3139844,23992
3141846,23794
3143846,24323
3145850,23823
3147854,24295
3149856,23803
3151857,23582
3153859,24325
3155859,23862
3157859,23985
3159861,23851
3161863,22812
3163864,23003
3165868,22438
3167871,23064
3169874,23139
3171876,22638
3173877,23220
3175880,22875
3177882,23071
3179884,23163
3181887,20439
3183889,18903
3185893,18522
3187894,18909
3189895,19154
3191895,18394
3193896,18838
3195897,18652
3197897,19635
3199898,20922
3201898,21289
3203900,23345
3205903,23064
3207907,22480
3209909,21156
3211912,20519
3213913,20976
3215915,18913
3217918,18123
3219921,18127
3221923,17086
3223924,17098
3225925,16930
3227928,16966
3229929,17399
3231929,17128
3233933,17239
3235933,17371
3237933,16903
3239936,17385
3241937,17171
3243940,17147
3245941,17383
3247941,16950
3249943,17337
3251947,17228
3253948,17514
3255948,18111
3257948,18370
3259952,16812
3261954,15502
3263956,9552
3265956,13940
3267959,16301
3269962,36902
3271965,58170
3273965,63193
3275965,62966
3277965,52074
3279967,37835
3281970,8442
3283973,4889
3285976,3993
3287976,11130
3289979,14895
3291980,16890
3293982,16946
3295985,17375
3297985,17080
3299987,16610
3301990,16832
3303993,16617
3305993,17010
3307994,16900
3309996,17239
3311998,18026
3314001,17635
3316001,18118
3318005,17227
3320007,18033
3322009,18831
3324011,18039
3326013,18676
3328014,18642
3330018,18638
3332020,19527
3334020,19464
3336020,20626
3338023,20471
3340026,20345
3342028,21013
3344028,21262
3346029,22083
3348029,22041
3350029,22044
3352033,22842
3354034,23080
3356035,23896
3358036,24190
3360039,24791
3362040,25852
3364040,25620
3366042,26302
3368044,27467
3370045,27336
3372048,28654
3374050,28851
3376050,29524
3378054,30050
3380056,29710
3382058,30510
3384062,30317
3386063,30271
3388066,30026
3390069,28128
3392071,28264
3394074,27468
3396078,26117
3398078,25547
3400081,24818
3402083,23976
3404086,22548
3406087,22362
3408090,22420
3410093,21738
3412095,22124
3414095,21450
3416098,21633
3418098,21880
3420100,21273
3422101,21331
3424102,20719
3426106,20846
3428107,21696
3430110,21545
3432112,22148
3434112,21615
3436112,21536
3438112,21780
3440112,21487
3442115,22121
3444118,21980
3446119,21778
3448121,22135
3450123,21259
3452126,22008
3454126,21941
3456129,21714
3458133,21903
3460136,21301
3462136,20980
3464139,20653
3466141,20315
3468142,20663
3470142,20249
3472142,20583
3474142,20594
3476146,20243
3478148,20664
3480149,20237
3482151,19271
3484153,18426
3486154,18008
3488157,18732
3490158,18557
3492160,18340
3494162,18438
3496163,18030
3498163,19500
3500166,20513
3502169,21212
3504170,22716
3506170,22003
3508172,22463
3510175,20511
3512178,20499
3514181,20663
3516185,18109
3518188,18001
3520188,17608
3522190,16876
3524192,16785
3526196,16205
3528198,16984
3530198,16862
3532201,16804
3534202,17008
3536203,16643
3538203,16988
3540203,16921
3542203,16626
3544204,16982
3546207,16746
3548211,16984
3550212,16879
3552215,16658
3554218,17560
3556221,17475
3558224,18343
3560226,16300
3562228,14881
3564229,9591
3566229,13797
3568233,16151
3570236,36658
3572239,59422
3574241,63043
3576241,62992
3578245,49115
3580247,37283
3582248,7402
3584251,4504
3586254,3901
3588257,11066
3590258,14835
3592260,16188
3594263,16985
3596266,16693
3598269,16888
3600270,16255
3602273,16152
3604276,16664
3606276,16362
3608277,16813
3610281,16952
3612283,17271
3614283,17740
3616285,17522
3618285,16874
3620288,18081
3622290,18011
3624294,18138
3626294,18232
3628294,18190
3630297,18483
3632299,18791
3634300,19531
3636304,19819
3638307,19922
3640310,20302
3642313,20177
3644313,21152
3646313,21271
3648315,20970
3650316,22217
3652317,22128
3654319,22755
3656321,23601
3658321,23392
3660323,25006
3662325,25216
3664327,25648
3666331,25696
3668335,26257
3670339,27241
3672342,27749
3674345,28679
3676345,28929
3678348,28747
3680349,29951
3682350,29713
3684350,29918
3686351,29529
3688352,28728
3690352,28368
3692355,27075
3694356,27052
3696356,25769
3698357,24319
3700361,24567
3702362,22802
3704365,22284
3706365,22087
3708366,21598
3710369,21592
3712371,21108
3714374,21211
3716374,21381
3718374,20836
3720377,21361
3722380,20555
3724382,20473
3726382,20604
3728385,20691
3730387,21389
3732389,21230
3734389,21142
3736391,21398
3738394,20858
3740394,21396
3742398,21206
3744402,21082
3746402,21359
3748402,20952
3750403,21342
3752407,21218
3754410,21059
3756410,21371
3758412,21010
3760412,21288
3762413,20603
3764415,19726
3766415,19977
3768416,19950
3770419,20221
3772421,20215
3774422,19863
3776422,20325
3778424,20065
3780424,20114
3782428,19733
3784432,19094
3786434,19428
3788434,19377
3790437,19376
3792440,19163
3794440,18977
3796440,19604
3798444,20114
3800444,21399
3802445,22117
3804449,23322
3806453,23351
3808457,23005
3810457,21116
3812458,21373
3814458,20918
3816460,19589
3818461,18622
3820463,18146
3822466,17792
3824468,17098
3826472,17315
3828474,17613
3830477,17419
3832479,17756
3834482,17383
3836485,17712
3838487,17640
3840488,17392
3842489,17755
3844492,17429
3846493,17621
3848497,17648
3850500,17323
3852504,17744
3854505,18039
3856507,18366
3858507,19133
3860511,15940
3862514,15005
3864518,9685
3866518,15437
3868521,19236
3870524,38144
3872525,63031
3874527,63033
3876531,62958
3878534,45975
3880537,37436
3882538,7291
3884538,4369
3886539,4530
3888539,11511
3890542,15844
3892543,17416
3894546,17472
3896549,17627
3898552,17596
3900554,16641
3902555,17293
3904556,17131
3906557,17240
3908557,17647
3910560,17402
3912560,18482
3914560,18374
3916564,18276
3918566,17792
3920567,18438
3922569,19139
3924571,18688
3926575,18865
3928577,19256
3930577,19083
3932577,20090
3934577,20217
3936581,20542
3938584,21306
3940587,21028
3942589,21353
3944590,22234
3946593,22000
3948593,22480
3950597,22728
3952599,23121
3954600,23877
3956604,24308
3958604,25123
3960607,25728
3962608,26490
3964610,26826
3966612,26574
3968615,28400
3970618,28354
3972618,29063
3974618,30225
3976619,29848
3978621,30852
3980621,30812
3982622,30986
3984625,31524
3986625,30254
3988628,30512
3990628,29116
3992630,28545
3994631,28471
3996634,26259
3998638,25962
4000641,25174
4002644,24192
4004646,23318
4006648,22590
4008652,23219
4010654,22273
4012656,22239
4014657,21926
4016657,21552
4018661,22130
4020663,21888
4022666,21272
4024666,21342
4026666,20864
4028670,22280
4030670,22185
4032672,22226
4034675,22146
4036676,21560
4038679,22129
4040682,22185
4042685,22219
4044689,22476
4046689,21912
4048690,22392
4050692,21910
4052692,22160
4054694,22492
4056695,21950
4058695,22141
4060697,21844
4062700,21117
4064701,21085
4066703,20565
4068703,21346
4070706,21180
4072709,21072
4074710,21378
4076710,20902
4078713,21391
4080715,21217
4082718,18806
4084718,18514
4086720,18068
4088720,18686
4090723,18664
4092724,18119
4094727,18492
4096729,18254
4098729,19450
4100731,20984
4102733,21070
4104733,22818
4106733,22246
4108736,21908
4110738,20695
4112740,20141
4114742,20085
4116745,18258
4118745,17758
4120746,17598
4122749,16605
4124753,16731
4126754,16487
4128755,16874
4130758,17014
4132758,16564
4134759,17003
4136761,16855
4138762,16706
4140763,16995
4142763,16634
4144764,16971
4146767,16886
4148768,16747
4150771,17028
4152772,16661
4154772,17581
4156775,17760
4158775,17991
4160778,15780
4162779,14033
4164783,9400
4166784,15080
4168787,19315
4170790,37175
4172790,63053
4174792,63002
4176796,63002
4178800,42648
4180803,28110
4182805,6644
4184808,4195
4186811,5114
4188812,11166
4190815,15766
4192817,16339
4194818,16934
4196818,16935
4198818,16506
4200818,16308
4202821,16325
4204821,16514
4206823,16623
4208826,16527
4210828,17232
4212829,17532
4214831,17532
4216833,17508
4218835,16414
4220838,18268
4222840,18149
4224843,17946
4226847,18446
4228850,17999
4230852,18496
4232856,19236
4234859,19351
4236859,19938
4238859,19772
4240861,20358
4242862,20487
4244864,20944
4246868,21357
4248871,20845
4250872,22226
4252874,22534
4254875,22392
4256875,23807
4258875,23893
4260878,24907
4262882,25561
4264885,25242
4266886,25800
4268887,26575
4270887,27286
4272890,28149
4274893,28294
4276895,29153
4278898,28791
4280898,29886
4282901,29994
4284901,29435
4286905,29403
4288906,28602
4290909,28204
4292912,27241
4294915,26096
4296918,25838
4298921,24310
4300923,23943
4302926,23075
4304927,21800
4306928,22197
4308931,21728
4310932,21403
4312932,21298
4314932,20908
4316934,21403
4318937,21012
4320940,21257
4322942,20675
4324946,20208
4326946,20669
4328947,20975
4330950,21245
4332979,21062
4334979,21078
4336983,21394
4338986,20909
4340986,21357
4342990,21161
4344990,21101
4346991,21380
4348994,20898
4350998,21385
4352998,21222
4355001,21126
4357002,21404
4359004,20876
4361007,21048
4363008,20507
4365008,19664
4367011,20136
4369014,19909
4371015,20270
4373019,20213
4375022,20010
4377022,20311
4379024,19934
4381025,20235
4383025,17933
4385029,17389
4387031,17758
4389032,17440
4391034,17506
4393034,17309
4395035,17299
4397036,18115
4399039,18187
4401040,19684
4403041,20467
4405045,21200
4407045,21102
4409048,20323
4411050,19416
4413052,19535
4415056,18418
4417060,17764
4419063,16582
4421065,16383
4423066,16308
4425069,15208
4427071,15769
4429074,15778
4431075,15778
4433078,15899
4435080,15533
4437080,16264
4439083,16113
4441084,16090
4443084,15930
4445084,15515
4447084,15884
4449088,15783
4451089,15649
4453091,15908
4455093,16247
4457095,16967
4459096,17292
4461096,14485
4463098,11750
4465100,8772
4467100,14890
4469103,25187
4471103,34524
4473105,62910
4475106,62929
4477106,63015
4479106,37995
4481108,23095
4483109,6173
4485113,4078
4487115,7211
4489117,10954
4491120,14850
4493123,15858
4495123,15972
4497123,15901
4499125,15626
4501127,15254
4503131,15539
4505132,15313
4507135,15437
4509136,15798
4511137,15894
4513141,16670
4515144,16413
4517146,16397
4519146,16273
4521150,16831
4523150,17209
4525152,16803
4527152,17213
4529152,17504
4531152,17273
4533152,18402
4535155,18475
4537157,18558
4539157,19155
4541160,18927
4543162,19539
4545162,20136
4547162,19928
4549166,20321
4551168,20445
4553171,21291
4555174,21634
4557178,21984
4559180,22983
4561183,23067
4563183,24151
4565183,24134
4567185,23826
4569187,25712
4571189,25631
4573190,26390
4575192,27422
4577196,27016
4579199,27665
4581202,27739
4583202,28346
4585203,28533
4587204,27069
4589208,27100
4591211,25938
4593211,25747
4595211,24922
4597211,23777
4599214,23310
4601218,22249
4603221,22047
4605225,20974
4607228,20567
4609231,21044
4611233,19990
4613236,20004
4615238,19845
4617241,19481
4619243,19959
4621246,19547
4623246,19527
4625247,19494
4627250,19095
4629250,20286
4631252,20024
4633252,20180
4635253,19902
4637253,19442
4639255,19978
4641255,20109
4643257,20025
4645257,20301
4647259,19851
4649262,20080
4651264,19806
4653264,19961
4655264,20334
4657265,19958
4659268,19906
4661269,19747
4663269,19111
4665272,18901
4667276,18722
4669278,19079
4671278,19149
4673278,18706
4675281,19157
4677284,18944
4679285,18981
4681288,19161
4683288,19031
4685291,19555
4687293,19358
4689294,19413
4691296,19330
4693299,18712
4695300,19532
4697301,19713
4699304,20121
4701304,21955
4703307,22545
4705310,23951
4707312,23047
4709315,21866
4711317,21355
4713320,20887
4715320,21384
4717323,20286
4719326,19291
4721329,18558
4723332,17636
4725335,17748
4727338,17200
4729339,17358
4731340,17721
4733342,17359
4735345,17742
4737347,17580
4739350,17516
4741353,17716
4743353,17355
4745353,17650
4747356,17652
4749358,17385
4751359,17750
4753363,17445
4755364,17704
4757364,18388
4759368,18412
4761371,19184
4763374,15526
4765376,12926
4767376,9707
4769378,15862
4771380,27885
4773382,39040
4775383,62978
4777386,63040
4779389,63220
4781392,41857
4783392,21060
4785392,6490
4787396,4079
4789399,8458
4791401,11798
4793401,16697
4795401,17491
4797402,17670
4799405,17292
4801406,17424
4803407,16763
4805408,17255
4807409,17337
4809409,16912
4811411,17696
4813415,17961
4815418,18321
4817420,18452
4819421,17587
4821421,17748
4823424,18911
4825426,18729
4827426,18839
4829428,18717
4831431,19374
4833431,19398
4835431,19970
4837433,20743
4839436,20574
4841439,21302
4843440,21249
4845444,21037
4847444,22464
4849448,22149
4851451,22429
4853451,23009
4855454,23119
4857454,23967
4859457,24480
4861459,25553
4863459,26016
4865459,26174
4867460,27113
4869463,26818
4871466,28434
4873467,29082
4875468,28757
4877471,30438
4879475,30133
4881478,30716
4883478,31118
4885478,30719
4887482,31610
4889485,30365
4891486,29901
4893487,29354
4895489,28092
4897493,27571
4899496,26324
4901498,25728
4903499,24667
4905499,23781
4907499,23301
4909501,22830
4911504,23116
4913505,22452
4915506,21796
4917509,22197
4919510,21914
4921512,22015
4923515,22092
4925517,20946
4927518,21432
4929518,21120
4931518,22197
4933521,22461
4935521,21929
4937521,22158
4939524,21868
4941524,21853
4943526,22447
4945528,21933
4947529,22482
4949532,22288
4951532,22059
4953534,22143
4955537,21927
4957540,22438
4959542,22315
4961546,21790
4963550,21670
4965553,20913
4967555,21036
4969557,21064
4971558,21052
4973559,21385
4975562,20976
4977565,21349
4979568,21159
4981571,21108
4983571,21363
4985574,20531
4987575,21004
4989578,20856
4991578,20976
4993578,20942
4995580,20257
4997580,20902
4999580,21630
5001584,21663
5003585,23893
5005585,25078
5007589,25990
5009592,25332
5011595,23797
5013599,23126
5015601,22772
5017603,21842
5019604,20938
5021604,19581
5023605,19473
5025605,18948
5027606,18718
5029610,18949
5031613,18778
5033614,19211
5035614,18897
5037614,19074
5039617,19147
5041620,18648
5043621,19177
5045625,18881
5047628,19053
5049631,19111
5051631,18726
5053633,19171
5055633,18939
5057634,19702
5059636,20341
5061639,20117
5063642,17210
5065643,12456
5067645,10429
5069649,18081
5071651,34242
5073652,42801
5075653,62856
5077655,62991
5079655,62931
5081655,43376
5083656,20239
5085657,6822
5087661,4536
5089662,10018
5091662,12648
5093662,18504
5095664,18765
5097665,19054
5099668,19127
5101672,18241
5103673,18488
5105674,18528
5107674,18706
5109674,18808
5111675,18648
5113678,19624
5115682,19697
5117682,19675
5119682,19449
5121684,18734
5123686,20512
5125688,20289
5127691,20040
5129692,20667
5131693,20409
5133695,20992
5135699,21943
5137701,22201
5139705,22870
5141705,22692
5143705,23155
5145705,23065
5147708,23795
5149710,24355
5151713,23789
5153713,25228
5155717,25708
5157718,25581
5159720,27198
5161723,27383
5163724,27947
5165726,28865
5167728,28710
5169732,29416
5171735,30539
5173739,31538
5175740,31738
5177743,32410
5179745,33315
5181748,32659
5183751,34048
5185752,34000
5187752,33909
5189756,33426
5191759,31678
5193761,31901
5195763,30901
5197767,29442
5199768,29095
5201772,27333
5203776,26891
5205779,26028
5207781,24953
5209781,24943
5211784,24466
5213786,24363
5215786,23695
5217786,23767
5219786,23900
5221789,23368
5223791,23958
5225793,22906
5227794,23013
5229796,23173
5231799,23654
5233800,24319
5235800,24075
5237803,23675
5239803,23969
5241806,23354
5243807,24290
5245808,24082
5247809,23978
5249812,24276
5251816,23466
5253817,23952
5255818,24099
5257819,23961
5259820,24286
5261822,23425
5263823,23368
5265825,23039
5267825,22384
5269829,23101
5271832,22712
5273835,23159
5275836,23043
5277838,22812
5279840,23225
5281844,22690
5283845,23136
5285848,20022
5287848,19591
5289851,19987
5291852,19912
5293852,19727
5295854,19454
5297855,19460
5299855,20759
5301858,20704
5303858,22599
5305862,24166
5307865,24019
5309867,24330
5311868,22368
5313868,21928
5315868,22097
5317872,20269
5319874,19961
5321876,18995
5323877,18545
5325880,18466
5327882,17312
5329884,17995
5331887,17890
5333888,17912
5335888,18131
5337889,17525
5339891,18480
5341892,18346
5343894,18178
5345895,18117
5347896,17762
5349898,18095
5351898,18025
5353899,17773
5355901,18120
5357902,18796
5359906,19402
5361910,19484
5363911,16050
5365911,11373
5367911,9554
5369913,16920
5371917,34885
5373920,40051
5375921,63080
5377922,62978
5379925,63109
5381927,41409
5383931,14912
5385933,6737
5387936,4053
5389937,10007
5391940,12173
5393942,17010
5395942,18302
5397945,18228
5399947,18002
5401948,17452
5403949,16936
5405951,17734
5407952,17516
5409954,17573
5411956,18075
5413956,18502
5415956,19142
5417959,19055
5419960,18332
5421961,18626
5423964,19123
5425964,19238
5427967,19105
5429969,19149
5431973,19876
5433975,19547
5435975,20867
5437976,21523
5439977,21258
5441979,21784
5443979,21736
5445983,22033
5447986,23148
5449989,22874
5451992,23269
5453993,23937
5455993,24409
5457996,24729
5459999,25104
5462003,26664
5464003,26512
5466006,27299
5468006,27837
5470008,27297
5472008,29364
5474010,29854
5476011,30026
5478013,31544
5480013,30878
5482016,31578
5484019,31997
5486020,32195
5488021,32524
5490024,30934
5492028,30722
5494031,29844
5496033,29136
5498036,27806
5500038,26931
5502039,26498
5504042,24955
5506046,24785
5508047,23901
5510048,23334
5512051,23821
5514052,22850
5516055,22702
5518055,22758
5520058,22232
5522058,22797
5524061,22428
5526063,21949
5528065,22083
5530067,21720
5532070,23144
5534074,22942
5536077,22887
5538078,22830
5540082,22223
5542084,22818
5544084,22898
5546084,22845
5548086,23141
5550088,22620
5552091,22926
5554094,22670
5556094,22828
5558094,23132
5560094,22630
5562094,22739
5564096,22097
5566097,21634
5568098,21752
5570098,21451
5572099,21638
5574099,21674
5576103,21218
5578103,21764
5580107,21454
5582109,21642
5584109,21746
5586112,21545
5588112,22113
5590112,21898
5592115,22304
5594118,21841
5596120,21251
5598122,22119
5600124,22646
5602125,23047
5604125,25296
5606128,26454
5608130,27544
5610131,26583
5612135,24885
5614137,24592
5616139,24060
5618142,22588
5620144,21718
5622146,20905
5624146,20550
5626147,19748
5628150,19994
5630154,20013
5632157,20092
5634157,20299
5636157,19805
5638157,20242
5640158,20140
5642161,19988
5644164,20303
5646165,19817
5648166,20293
5650169,20148
5652170,19977
5654173,20323
5656173,19970
5658176,20960
5660178,21514
5662178,20698
5664181,18182
5666184,12033
5668185,11332
5670186,19191
5672190,40160
5674190,52199
5676190,63130
5678190,62958
5680192,62964
5682195,45001
5684197,13620
5686198,6556
5688200,4485
5690202,12137
5692203,14778
5694203,19787
5696203,19787
5698206,20230
5700207,20189
5702210,19381
5704213,19611
5706216,19555
5708216,19874
5710219,19830
5712220,19836
5714220,20883
5716220,20736
5718223,20840
5720227,20377
5722228,20024
5724232,21727
5726236,21134
5728237,21313
5730238,21706
5732238,21513
5734242,22408
5736243,22790
5738244,23512
5740247,23944
5742249,23689
5744250,24541
5746250,24571
5748254,25365
5750255,25703
5752257,25283
5754260,26658
5756263,27244
5758265,27345
5760267,28631
5762269,29196
5764271,30161
5766273,30588
5768277,30793
5770280,31744
5772281,32280
5774285,33922
5776285,34261
5778287,34659
5780289,35491
5782289,35032
5784289,36191
5786291,36323
5788294,35863
5790294,35609
5792297,33597
5794300,33852
5796304,32675
5798308,30875
5800311,30528
5802313,29105
5804317,28194
5806317,27103
5808319,26327
5810320,26423
5812320,25728
5814323,25840
5816326,25102
5818329,25187
5820332,25352
5822335,24763
5824337,25188
5826337,24365
5828337,24430
5830341,24909
5832344,25084
5834344,25796
5836345,25326
5838346,25194
5840348,25365
5842351,24910
5844354,25804
5846358,25484
5848358,25423
5850358,25767
5852359,24845
5854362,25483
5856365,25536
5858367,25407
5860370,25653
5862371,24784
5864371,24883
5866374,24231
5868375,23552
5870377,24300
5872381,23720
5874381,24283
5876381,24150
5878381,23861
5880385,24313
5882387,23828
5884388,23651
5886388,21708
5888388,21329
5890388,21868
5892390,21650
5894391,21394
5896392,21437
5898396,21144
5900400,22756
5902402,23197
5904402,24785
5906406,26894
5908410,26484
5910413,26558
5912415,24284
5914419,24179
5916420,24247
5918421,21594
5920423,21485
5922425,20414
5924427,19915
5926428,19783
5928429,19045
5930433,19914
5932433,19664
5934436,19780
5936438,19900
5938441,19447
5940443,19960
5942445,19729
5944448,19789
5946450,19897
5948453,19460
5950456,19979
5952456,19759
5954460,19717
5956464,20115
5958465,20083
5960466,21255
5962468,19987
5964469,17618
5966472,11571
5968476,13558
5970476,19057
5972479,41929
5974479,56422
5976479,62954
5978479,63067
5980483,63043
5982485,44228
5984487,11936
5986488,6198
5988489,4440
5990490,12310
5992490,15212
5994491,19292
5996492,19952
5998493,19396
6000496,19909
6002498,19081
6004502,19099
6006504,19544
6008505,19068
6010507,19745
6012509,19756
6014511,20275
6016514,20673
6018518,20142
6020520,20011
6022523,20209
6024526,21042
6026529,21034
6028529,20607
6030532,21371
6032532,21518
6034535,21850
6036539,22792
6038539,22983
6040542,23637
6042545,23743
6044548,23869
6046549,24842
6048552,24941
6050555,25347
6052558,25543
6054559,25938
6056559,27185
6058562,26990
6060563,28199
6062565,29103
6064569,29077
6066569,30134
6068569,29837
6070569,30999
6072573,32095
6074575,32613
6076579,33964
6078579,33849
6080581,34706
6082582,35051
6084585,34880
6086587,35920
6088591,34871
6090592,34790
6092594,33375
6094595,32422
6096595,32350
6098599,29711
6100599,29549
6102599,28895
6104603,27129
6106605,26920
6108606,25604
6110607,26035
6112609,25585
6114609,24849
6116609,24987
6118609,24613
6120613,24908
6122614,24918
6124614,24170
6126617,24375
6128619,23976
6130619,24526
6132621,25349
6134621,24743
6136622,25182
6138623,24675
6140625,24823
6142627,25128
6144628,24789
6146630,25413
6148630,25142
6150632,25046
6152634,25038
6154635,24609
6156637,25397
6158637,25168
6160638,24885
6162639,25046
6164640,23842
6166642,23917
6168642,23446
6170643,23434
6172645,23949
6174645,23465
6176647,23857
6178650,23841
6180653,23421
6182654,23927
6184656,22927
6186659,22049
6188663,21979
6190666,21760
6192668,22513
6194672,21415
6196672,21768
6198675,22083
6200677,22555
6202680,24212
6204681,25010
6206682,27133
6208683,27159
6210687,26166
6212687,24827
6214691,24344
6216694,24505
6218694,22387
6220697,21185
6222700,21053
6224701,20154
6226702,19954
6228704,19918
6230707,19766
6232707,20338
6234708,20096
6236711,20048
6238711,20283
6240713,19827
6242716,20290
6244719,20103
6246719,19978
6248720,20344
6250723,19898
6252726,20249
6254729,20242
6256730,20136
6258730,21003
6260733,21347
6262736,20110
6264738,18068
6266738,11280
6268738,14888
6270742,19161
6272745,42504
6274745,61964
6276748,62976
6278751,63115
6280755,62994
6282757,44965
6284759,9903
6286762,5901
6288762,4454
6290764,12473
6292764,16445
6294767,19728
6296767,19903
6298771,20318
6300773,19900
6302776,19575
6304778,19675
6306781,19525
6308781,19960
6310783,19777
6312785,20222
6314786,20861
6316787,20519
6318787,21036
6320790,20093
6322791,20947
6324795,21679
6326798,20859
6328798,21525
6330800,21519
6332802,21840
6334806,22612
6336810,22599
6338812,23855
6340815,23855
6342817,24023
6344824,24818
6346827,24585
6348829,25720
6350832,25393
6352835,26065
6354835,26764
6356836,26880
6358840,28180
6360841,28349
6362842,29529
6364844,30572
6366848,30136
6368850,31100
6370851,31766
6372852,32532
6374853,34030
6376854,33989
6378855,35167
6380855,35276
6382858,35403
6384861,36276
6386861,35773
6388862,35857
6390862,35208
6392864,33659
6394866,33344
6396870,32253
6398873,30898
6400877,29943
6402880,29518
6404880,28065
6406881,26477
6408882,26519
6410884,26122
6412886,25744
6414889,25728
6416891,24753
6418892,25324
6420893,25116
6422895,25043
6424896,24791
6426898,24038
6428899,24632
6430900,25116
6432900,25271
6434901,25725
6436902,25007
6438905,25342
6440908,25251
6442908,25063
6444908,25693
6446910,25222
6448910,25549
6450910,25639
6452912,24798
6454913,25603
6456916,25323
6458916,25544
6460918,25415
6462919,24769
6464921,24663
6466922,23787
6468924,23769
6470925,24239
6472926,23665
6480552,23901
6482556,24034
6484559,22282
6486562,17749
6488562,18121
6490566,17894
6492567,17983
6501043,18259
6503045,19966
6505046,20475
6507049,21787
6509053,21901
6511055,21353
6514197,19797
6516197,19498
6518199,18592
6520205,17741
6522214,17017
6524217,16563
6526220,16335
6528225,15946
6530226,15878
6532229,16260
6534229,16212
6536231,15955
6538231,16283
6540231,16328
6542231,16492
6544235,16627
6546239,15932
6548240,16303
6550242,16020
6552243,16173
6554243,16246
6556250,15866
6558253,16980
6560255,17383
6562258,17439
6564259,14527
6566262,9885
6568262,9490
6570262,15156
6572263,31106
6574266,37124
6576269,62882
6578271,62894
6580274,62876
6582277,36420
6584280,13151
6586282,5811
6588286,4016
6590289,9386
6592289,11128
6594292,15703
6596292,15972
6598292,16635
6600295,16137
6602298,15453
6604301,15566
6606304,15535
6608305,15899
6610307,15818
6612311,16100
6614311,16830
6616312,16669
6618312,16934
6620315,16668
6622316,16344
6624318,17709
6626321,17157
6628325,17257
6630329,17651
6632329,17566
6639037,19158
6641037,19067
6643041,19486
6645042,19827
6647044,19961
6649051,20640
6651057,20234
6653059,21204
6655059,21626
6657060,21563
6659062,22548
6661065,22408
6663240,23681
6665240,24565
6667242,24226
6669245,24786
6671249,26000
6673251,25794
6675252,27153
6677254,27400
6679255,27698
6681257,28227
6683280,28795
6685280,29019
6687280,28398
6689282,28338
6691285,28048
6693285,26753
6695293,26651
6697297,25896
6699298,24629
6701302,23843
6703304,23603
6705307,22482
6707311,21064
6709311,21359
6711314,21173
6713318,20494
6715321,20685
6717324,20144
6719325,20628
6721327,20501
6723330,20293
6725331,20136
6727331,19435
6729332,19878
6731333,20335
6733333,20246
6735338,20657
6737339,20190
6739339,20599
6741339,20521
6743341,20157
6745341,20655
6747341,20279
6749342,20493
6751345,20595
6753346,20162
6755346,20629
6757349,20410
6759350,20439
6761351,20571
6763352,20146
6765354,19966
6767355,19111
6769359,19053
6771360,19499
6773361,19049
6775362,19512
6777365,19344
6779366,19297
6781368,19559
6783371,19051
6785374,19804
6787377,19751
6789378,19805
6791380,20219
6793382,19808
6795383,19477
6797385,19685
6799387,19587
6801388,20612
6803389,21614
6805390,22404
6807390,24456
6809390,23454
6811391,23729
6813391,21804
6815392,21904
6817392,22014
6819395,21509
6821396,20196
6823397,19493
6825399,18646
6827399,18246
6829402,17758
6831406,17724
6833408,17781
6835410,17919
6837411,18058
6839411,17611
6841414,18084
6843417,17873
6845418,17841
6847422,18019
6849423,17648
6851426,18113
6853427,17964
6855430,17843
6857433,18077
6859433,17819
6861433,18710
6863433,19300
6865434,19107
6867436,16004
6869436,10941
6871438,10055
6873440,17032
6875440,34385
6877442,43353
6879443,62477
6881447,62584
6892999,8611
6895001,11849
6897001,17277
6899003,17798
6901003,17766
6904314,18029
6906316,16944
6908318,17636
6910320,17424
6912320,17589
6914320,17945
6916323,17577
6918326,18801
6920326,18648
6922328,18525
6924333,18109
6926337,18698
6928339,19482
6930340,18937
6932341,19182
6934345,19595
6936347,19395
6938351,20357
6940352,20465
6942355,20904
6944356,21594
6946358,21190
6948361,21995
6950362,22647
6952363,22304
6954364,22832
6956366,23081
6958366,23799
6960369,24450
6962370,24619
6964370,25399
6966371,26306
6968374,26864
6970376,27129
6972376,26865
6974376,28721
6976380,28599
6978381,29657
6980384,30764
6982385,30479
6984385,31095
6986386,31330
6988389,31511
6990392,32114
6992395,30672
6994397,31034
6996397,29607
6998397,28883
7000400,28681
7002402,26548
7008344,24088
7010345,23767
7012346,23441
7014349,23175
7016349,23009
7018349,22376
7020350,22350
7022350,22328
7032852,21565
7034854,22698
7036857,22662
7038859,22372
7040863,22464
7042863,22006
7044866,22436
7046867,22660
7048867,22309
7050870,22826
7052873,22389
7054875,22566
7056878,22300
7058881,22341
7060884,22828
7062885,22364
7064888,22413
7066888,22137
7068892,21674
7070896,21457
7072898,21150
7074902,21638
7076905,21610
7078907,21274
7080908,21790
7082909,21359
7084911,21614
7086913,21664
7088917,19351
7090918,19555
7092919,19245
7094920,19414
7096920,19289
7099469,19101
7102879,19817
7104881,19763
7106882,21941
7108882,22846
7110882,23589
7112886,23260
7114886,21975
7116886,21329
7118887,21205
7120891,20311
7122892,19563
7124896,18101
7126896,18077
7128898,17613
7130899,17076
7132899,17534
7134899,17401
7136900,17685
7138903,17558
7140906,17402
7142909,17772
7144912,17430
7146916,17680
7148919,17658
7150920,17293
7152922,17745
7154970,17331
7156974,17726
7158982,17368
7160992,18380
7163038,18368
7165058,19171
7167059,15626
7173126,16488
7175128,31195
7177130,38507
7179132,62946
7181132,62820
7183135,62851
7185137,40677
7187140,19911
7189142,6461
7191143,4061
7193143,8774
7195145,11730
7197148,16618
7199152,17595
7201155,17383
7203155,17618
7205159,17171
7207161,16618
7209162,17316
7211163,17120
7213164,17205
7215167,17702
7217170,17772
7219170,18445
7221174,18250
7223178,17869
7225179,17707
7227181,18478
7229183,18966
7231184,18658
7233185,18845
7237538,19563
7239539,19892
7241543,20868
7243545,20835
7245547,21120
7247550,21391
7249552,21008
7251552,22390
7253554,22328
7255555,22144
7257555,23171
7259557,23302
7261558,23895
7263558,24790
7265559,25252
7267562,26051
7269565,26283
7271566,26994
7273567,27201
7275567,27945
7277574,28920
7279576,28943
7281578,30248
7283581,30592
7285581,30110
7287583,31236
7289583,30904
7291587,31229
7293590,30714
7295594,28975
7297595,29350
7299596,28083
7301598,27061
7303598,26564
7305602,25270
7307605,24547
7309606,23578
7311608,23147
7313610,23041
7315611,22640
7317614,22490
7319614,21701
7321618,22048
7323625,21947
7325637,21818
7327651,21860
7329663,20885
7331669,21401
7333683,21061
7335714,22446
7337736,21935
7339769,22356
7341776,21634
7343781,22016
7345796,22002
7347807,22210
7349810,22366
7351813,21867
7353846,22406
7355850,21557
7357872,22256
7359914,21907
7361928,22454
7363932,21851
7365941,22053
7367956,21233
7369968,21084
7371973,20974
7373977,20759
7375999,21325
7378017,20827
7380030,21380
7382031,21063
7384033,21140
7386046,21311
7388070,20503
7391566,20204
7393595,19767
7395598,20620
7397599,19689
7410108,25105
7412110,24304
7414118,24601
7416142,22425
7418185,22804
7420188,22347
7434357,18426
7436367,18147
7438378,18418
7440410,18239
7442425,18606
7444459,18561
7446460,18625
7448567,18099
7450609,18365
7452660,18620
7454725,17995
7456842,17999
7464726,19372
7466840,16734
7468852,14932
7470972,10086
7473038,16551
7475203,30327
7477223,41424
7479230,62695
7481234,62673
7483234,62613
7485236,42797
7487241,18326
7489243,6836
7491244,4539
7493246,9844
7495250,12536
7497254,17706
7499254,18183
7501257,18811
7503261,18129
7505265,17962
7507268,17662
7509274,17742
7511280,18142
7513341,17909
7515375,18313
7517375,18869
7519375,19558
7521376,19194
7523388,18956
7525433,18380
7527461,19861
7529465,19639
7531486,19873
7533503,19699
7536531,19755
7538559,21188
7540563,20883
7542572,22044
7544585,22133
7546623,22430
7548668,22258
7550669,23348
7552672,23340
7558526,24321
7560541,25288
7562560,25453
7564570,26183
7566571,26531
7568709,27434
7570711,28320
7572712,28264
7574732,30076
7576737,30258
7578861,31001
7580933,31802
7582934,31672
7584937,31796
7587062,32374
7589170,32420
7591226,33150
7593226,31686
7595230,31592
7597289,30832
7599416,29747
7601472,28226
7603676,27814
7605731,26704
7607873,25262
7609880,25014
7611905,23892
7613910,23939
7615937,23772
7618016,23552
7620024,22646
7622026,23135
7624074,22598
7626097,23155
7628121,22414
7630121,22782
7632124,22636
7634285,22882
7636424,23001
7638555,23009
7640691,22660
7642691,23147
7644692,23076
7646695,23003
7648695,23592
7650698,23140
7652700,23472
7659566,23492
7661567,23051
7663571,23436
7665572,23021
7667572,22426
7669572,22678
7671573,21644
7674203,22253
7676207,22378
7678208,21907
7680214,22458
7682217,22191
7688097,22271
7690102,21724
7692105,21995
7697922,21754
7699929,21318
7701933,22097
7706876,24989
7726314,20577
7728316,20152
7730319,19723
7732332,19139
7734335,19900
7736374,19428
7738375,19943
7740385,19575
7742388,20094
7744434,19928
7746461,20279
7748461,19843
7750461,19601
7752465,19904
7754988,19932
7765441,21772
7767441,17600
7769444,12694
7771447,10775
7773449,18372
7775450,37901
7777454,44780
7779457,63017
7781460,62990
7783462,63010
7785462,46057
7787466,18857
7789468,7261
7791472,4523
7793472,11006
7795473,13618
7797477,18742
7799478,20082
7801478,20204
7803479,19721
7805483,19379
7807485,18755
7809485,19509
7811485,19422
7813489,19197
7815490,19936
7817491,20317
7819491,20904
7821492,20956
7823495,20052
7825496,20345
7827497,21403
7829501,21345
7831505,21313
7833505,21208
7835505,22022
7837508,21803
7839509,22972
7841511,23729
7843513,23372
7845513,24269
7847514,24329
7849516,24353
7851519,25702
7853519,25158
7855522,25752
7857524,26212
7859525,26640
7861527,27249
7863529,27584
7865530,29308
7867534,29501
7869535,29955
7871537,30937
7873537,30167
7875539,32555
7877540,33198
7879544,33203
7881546,34812
7883547,34380
7885550,35244
7887553,35546
7889553,35615
7891553,36342
7893557,34474
7895559,34220
7897559,33372
7899559,32273
7901562,31012
7903564,29770
7905566,29470
7907568,27601
7909568,27281
7911572,26109
7913572,25487
7915573,26078
7917573,25484
7919577,25145
7921579,25383
7923580,24793
7925580,25335
7927583,25201
7929585,24349
7931586,24619
7933586,23818
7935587,25672
7937591,25538
7939594,25385
7941595,25415
7943598,24769
7945599,25379
7947599,25617
7949602,25282
7951604,25794
7953608,25117
7955608,25435
7957610,25234
7959612,25280
7961614,25765
7963614,25163
7965615,25360
7967616,24613
7969618,24174
7971620,23976
7973621,23675
7975621,24199
7977625,24180
7979628,23787
7981631,24276
7983633,23733
7985634,24222
7987637,24168
7989638,18442
7991641,18535
7993641,18108
7995644,18773
7997647,18451
7999650,18149
8001650,18542
8003650,18963
8005650,19484
8007653,21283
8009654,21937
8011655,22796
8013658,22211
8015662,20874
8017663,20643
8019666,20148
8021666,19110
8023669,18270
8025672,17703
8027672,17159
8029675,16529
8031677,16675
8033681,16717
8035684,16895
8037686,16985
8039687,16568
8041691,17010
8043695,16846
8045697,16830
8047700,17002
8049703,16569
8051706,16998
8053707,16803
8055711,16842
8057715,16974
8059716,16569
8061716,17706
8063717,18121
8065720,18135
8067720,15306
8069723,10322
8071727,9801
8073729,15990
8075729,32278
8077732,38215
8079734,63044
8081737,63043
8083741,62881
8085741,37563
8087742,12090
8089744,6124
8091745,4019
8093745,9687
8095748,11431
8097751,16449
8099753,16614
8101754,16938
8103754,16938
8105758,16120
8107758,16336
8109761,16415
8111761,16587
8113764,16638
8115764,16584
8117765,17627
8119768,17511
8121770,17574
8123774,17090
8125777,16903
8127781,18418
8129784,17947
8131787,17961
8133787,18476
8135787,18085
8137789,18640
8139792,19340
8141792,19506
8143794,20012
8145794,19923
8147794,20514
8149795,20645
8151798,20917
8153802,21439
8155802,21162
8157806,22362
8159809,22484
8161812,22451
8163812,23937
8165815,24477
8167815,24881
8169818,25708
8171821,25142
8173825,25901
8175829,26771
8177833,27908
8179835,28249
8181838,28378
8183838,29328
8185841,29001
8187841,29932
8189844,29974
8191847,29338
8193847,29472
8195849,27993
8197849,27857
8199852,27190
8201856,25423
8203859,25515
8205860,24214
8207861,23487
8209864,22956
8211865,21674
8213866,22091
8215869,21687
8217872,21251
8219875,21283
8221877,20875
8223880,21419
8225883,21034
8227884,21084
8229885,20618
8231886,20167
8233888,20860
8235891,21030
8237894,21204
8239897,21361
8241899,20819
8243900,21397
8245901,21112
8247901,21204
8249901,21350
8251902,20713
8253905,21377
8255907,21160
8257909,21057
8259909,21365
8261910,20883
8263914,21356
8265914,21245
8267914,20403
8269918,20473
8271921,19510
8273921,20262
8275922,20186
8277922,19892
8279925,20330
8281929,19913
8283931,20232
8285932,20197
8287935,20102
8289935,21718
8291936,21440
8293937,21707
8295940,22055
8297940,20951
8299942,21513
8301945,21505
8303945,22466
8305945,23019
8307949,24018
8309950,26451
8311952,26341
8313954,25856
8315954,24298
8317958,23324
8319960,24024
8321962,21867
8323963,21301
8325963,20679
8327963,19551
8329964,19710
8331967,19049
8333969,19275
8335970,19600
8337973,19101
8339974,19535
8341974,19474
8343977,19635
8345979,19968
8347982,19406
8349985,19563
8351986,19424
8353986,19224
8355989,19575
8357993,19186
8359996,19825
8361999,20537
8364001,20844
8366002,20258
8368003,17118
8370006,11264
8372008,13107
8374008,18302
8376010,40963
8378010,54000
8380012,63132
8382015,62984
8384019,62974
8386020,44430
8388023,12331
8390025,6330
8392027,4455
8394027,12093
8396029,15106
8398031,18615
8400034,19820
8402037,19661
8404041,19293
8406044,18897
8408047,18491
8410047,19163
8412051,18995
8414054,19035
8416055,19543
8418058,20027
8420060,20612
8422060,20530
8424062,19627
8426063,20403
8428064,20964
8430065,20961
8432067,21064
8434070,20976
8436072,21652
8438072,21752
8440074,22680
8442077,23095
8444078,22778
8446078,23597
8448082,23540
8450086,23987
8452088,24921
8454092,24419
8456092,25333
8458095,25661
8460097,26418
8462098,27140
8464101,27271
8466104,29208
8468104,29293
8470108,29787
8472109,30080
8474113,30076
8476117,31943
8478119,32502
8480123,33138
8482124,34093
8484124,33800
8486128,34818
8488132,34726
8490133,35180
8492136,35196
8494138,33807
8496138,33258
8498139,32171
8500143,31743
8502144,30244
8504147,29049
8506147,29087
8508147,26940
8510150,26500
8512151,25794
8514155,25202
8516158,25459
8518160,24757
8520161,24565
8522162,24537
8524163,23959
8526164,24656
8528167,24006
8530167,23795
8532167,23873
8534168,23708
8536169,24970
8538169,24784
8540171,24631
8542174,24608
8544176,24091
8546178,24809
8548180,24733
8550184,24765
8552187,25020
8554191,24427
8556192,24686
8558194,24531
8560197,24763
8562199,24989
8564203,24270
8566207,24686
8568207,23624
8570209,23468
8572212,23135
8574212,22953
8576212,23568
8578213,23292
8580214,23348
8582216,23524
8584219,22994
8586222,23584
8588222,22698
8590225,21582
8592226,21743
8594229,21333
8596232,22086
8598232,21266
8600233,21327
8602235,21744
8604237,22107
8606240,23769
8608243,24763
8610243,26608
8612244,26916
8614246,25822
8616249,24541
8618252,24093
8620254,23937
8622256,22044
8624259,20829
8626259,20647
8628261,19877
8630265,19518
8632267,19580
8634270,19456
8636272,19946
8638275,19827
8640279,19664
8642281,19946
8644281,19543
8646285,19888
8648288,19779
8650292,19642
8652293,19945
8654296,19498
8656300,19896
8658303,19809
8660305,19853
8662308,20627
8664312,20805
8666312,19755
8668315,17647
8670316,11298
8672316,14811
8674316,18728
8676316,41980
8678316,59534
8680318,63020
8682318,63104
8684318,62602
8686319,44323
8688319,10677
8690323,5898
8692326,4433
8694329,12141
8696331,16082
8698332,19322
8700335,19608
8702339,19951
8704340,19461
8706341,19191
8708341,19282
8710344,19214
8712347,19555
8714347,19378
8716349,19861
8718349,20545
8720352,20174
8722354,20711
8724355,19672
8726356,20323
8728358,21255
8730360,20531
8732361,21202
8734364,21160
8736367,21545
8738370,22238
8740372,22244
8742373,23522
8744377,23452
8746377,23643
8748378,24273
8750379,24307
8752380,25409
8754381,25223
8756382,25616
8758383,26468
8760384,26542
8762386,27454
8764389,28085
8766391,28819
8768394,29703
8770396,29466
8772398,30324
8774400,31153
8776400,31688
8778403,33320
8780405,33298
8782408,34367
8784411,34616
8786411,34579
8788411,35579
8790414,35158
8792416,35220
8794419,34602
8796419,32860
8798420,32967
8800423,31633
8802423,30245
8804426,29336
8806427,28554
8808430,27677
8810433,26182
8812436,26148
8814439,25821
8816439,25304
8818440,25401
8820443,24487
8822447,24990
8824451,24777
8826452,24678
8828453,24556
8830455,23749
8832456,24304
8834459,24638
8836459,24894
8838460,25341
8840463,24682
8842464,24929
8844468,24823
8846472,24790
8848473,25413
8850475,24838
8852477,25321
8854479,25222
8856480,24611
8858483,25306
8860484,24839
8862486,25270
8864486,25064
8866486,24487
8868487,24381
8870490,23508
8872493,23475
8874493,23807
8876493,23374
8878493,23984
8880494,23610
8882498,23729
8884499,23859
8886499,23346
8888499,21466
8890499,18608
8892499,18660
8894502,19004
8896502,18706
8898506,18796
8900509,18624
8902512,18684
8904512,19834
8906512,20405
8908515,21680
8910517,23222
8912521,22826
8914523,22822
8916523,20595
8918523,20839
8920524,20861
8922526,18739
8924529,18496
8926532,17664
8928532,18103
8930535,17254
8932539,16905
8934543,17010
8936543,16982
8938544,17299
8940547,17299
8942549,17039
8944553,17413
8946556,16982
8948556,17285
8950557,17265
8952560,16971
8954561,17391
8956563,17071
8958564,17287
8960567,17309
8962569,17367
8964570,18138
8966573,18542
8968574,16741
8970575,15562
8972579,9474
8974579,13827
8976583,16413
8978584,36726
8980585,57581
8982586,63025
8984586,63037
8986589,52975
8988592,37745
8990594,8513
8992595,4871
8994598,3938
8996600,11174
8998601,14843
9000605,16870
9002605,16892
9004605,17367
9006605,17184
9008605,16505
9010605,16903
9012608,16595
9014611,17024
9016614,17063
9018615,17122
9020615,18067
9022615,17804
9024616,18045
9026618,17299
9028619,17788
9030621,18829
9032623,18203
9034623,18602
9036625,18802
9038626,18403
9040629,19576
9042631,19631
9044634,20469
9046637,20627
9048637,20146
9050637,21009
9052639,21509
9054640,21871
9056642,22128
9058642,21935
9060642,22806
9062646,23265
9064646,23677
9066650,24308
9068651,24746
9070652,25798
9072654,25856
9074658,26073
9076660,27377
9078662,27299
9080664,28597
9082665,29111
9084666,29281
9086668,30060
9088672,29705
9090675,30371
9092675,30600
9094675,30000
9096675,30058
9098676,28157
9100677,28176
9102677,27743
9104677,25817
9106680,25647
9108680,24858
9110683,24006
9112687,22771
9114690,22171
9116691,22470
9118694,21678
9120697,22119
9122699,21620
9124700,21442
9126701,21802
9128701,21281
9130703,21261
9132704,20939
9134706,20563
9136708,21734
9138710,21752
9140713,22032
9142715,21742
9144717,21365
9146719,21775
9148719,21675
9150721,22014
9152723,22053
9154725,21588
9156727,22135
9158727,21433
9160730,21868
9162733,22082
9164737,21644
9166738,21939
9168741,21385
9170744,20943
9172746,20677
9174747,20166
9176751,20703
9178755,20356
9180758,20551
9182761,20619
9184762,20123
9186762,20658
9188762,20431
9190765,21279
9192768,22119
9194768,21561
9196771,22310
9198775,22216
9200779,21592
9202781,21992
9204781,21573
9206781,23163
9208785,24398
9210787,24973
9212789,27142
9214793,26109
9216796,26510
9218799,24479
9220800,24298
9222802,24663
9224803,21752
9226806,21442
9228809,20785
9230813,20077
9232817,19797
9234819,19099
9236823,19915
9238824,19739
9240828,19763
9242830,19936
9244830,19741
9246830,20259
9248830,20167
9250830,19635
9252833,19954
9254833,19596
9256837,19892
9258840,19847
9260842,19549
9262843,20678
9264846,20648
9266847,21599
9268850,19045
9270854,17405
9272854,11147
9274855,16151
9276856,19013
9278856,43975
9280856,63081
9282860,63163
9284861,63004
9286861,56709
9288862,44534
9290865,8669
9292865,5334
9294868,4381
9296872,13167
9298875,17428
9300876,19125
9302877,20239
9304880,19705
9306883,19872
9308883,19187
9310885,18999
9312887,19558
9314890,19214
9316892,19776
9318892,19883
9320892,20445
9322894,21032
9324898,20727
9326899,20182
9328899,21389
9330903,21233
9332906,21414
9334907,21386
9336907,21474
9338907,22104
9340909,22275
9342910,23181
9344913,23695
9346917,23835
9348917,24254
9350921,24060
9352923,25399
9354924,25568
9356927,25322
9358928,26400
9360930,25888
9362931,27154
9364932,27869
9366932,27718
9368936,29816
9370937,29681
9372938,30421
9374939,30876
9376941,31383
9378942,32664
9380945,33133
9382978,34557
9384980,34248
9386980,34867
9388981,35760
9390983,35030
9392985,36269
9394989,34888
9396990,34806
9398991,33719
9400991,32193
9402992,32552
9404992,30059
9406992,29441
9408994,29360
9410995,26984
9412997,26551
9414998,25786
9416998,25904
9419001,25807
9421004,25106
9423004,25425
9425004,25050
9427004,25052
9429007,25393
9431008,24202
9433011,24631
9435013,24464
9437016,25166
9439018,25712
9441020,25150
9443178,24965
9445181,25451
9447182,24865
9449186,25679
9451188,25679
9453190,25232
9455193,25772
9457194,25160
9459197,25438
9461199,25599
9463201,25210
9465203,25810
9467207,24877
9469208,25384
9471212,24475
9473215,23646
9475218,24013
9477221,23753
9479225,24276
9481226,24156
9483227,23847
9485229,24289
9487229,23785
9489230,24258
9491232,21754
9493236,21040
9495236,21385
9497240,21262
9499242,21654
9501243,20950
9503244,20843
9505245,21509
9507247,22066
9509250,24066
9511253,24745
9513256,25780
9515258,25901
9517258,25121
9519259,23843
9521260,23887
9523262,22915
9525264,21437
9527266,20183
9529268,20022
9531270,19549
9533272,18764
9535273,19198
9537276,19303
9539279,19380
9541279,19549
9543280,19105
9545283,19543
9547287,19398
9549290,19338
9551294,19536
9553296,19037
9555297,19538
9557298,19400
9559300,19288
9561303,19555
9563303,19729
9565306,20399
9567310,20888
9569312,17589
9571315,16280
9573315,10376
9575316,17159
9577317,23986
9579318,42493
9581319,63021
9583321,62994
9585321,62884
9587321,49103
9589324,35379
9591326,7826
9593326,4801
9595330,6886
9597330,13041
9599330,17941
9601333,19300
9603334,19210
9605334,19487
9607337,19448
9609340,18419
9611341,19129
9613343,18919
9615344,19062
9617347,19417
9619349,19153
9621353,20275
9623353,19984
9625354,19964
9627356,19539
9629359,20263
9631361,20904
9633363,20454
9635367,20727
9637369,21051
9639369,20883
9641370,22330
9643373,22518
9645373,22877
9647376,23458
9649379,23043
9651382,24032
9653382,24629
9655383,24641
9657384,25023
9659384,25052
9661388,25920
9663389,26269
9665393,26954
9667397,27985
9669399,28366
9671402,29519
9673404,29617
9675408,29671
9677409,31415
9679409,31319
9681412,32565
9683413,33494
9685414,33054
9687414,34141
9689416,34016
9691420,34847
9693421,34963
9695422,33736
9697422,33693
9699423,32015
9701424,31662
9703426,30797
9705429,29305
9707429,28800
9709431,27347
9711435,26850
9713437,25290
9715437,25000
9717441,25384
9719441,24479
9721442,24891
9723444,24428
9725445,24246
9727445,24629
9729446,24154
9731449,24216
9733450,23821
9735450,23441
9737453,24961
9739457,24507
9741459,24899
9743459,24623
9745461,24153
9747465,24647
9749469,24443
9751470,24959
9753473,24861
9755476,24540
9757476,24923
9759479,24095
9761482,24911
9763485,25032
9765488,24548
9767491,24706
9769493,23886
9771496,23933
9773499,23143
9775499,22839
9777499,23580
9779502,23125
9781504,23517
9783507,23480
9785510,23113
9787514,23593
9789516,23071
9791516,22264
9793517,21898
9795517,21636
9797521,22460
9799522,21852
9801523,21656
9803527,22015
9805529,22024
9807532,23227
9809532,24797
9811535,26041
9813535,27518
9815537,26310
9817539,26297
9819541,24322
9821542,24469
9823544,23799
9825547,21643
9827550,21144
9829551,20500
9831552,20162
9833552,19953
9835552,19581
9837552,20312
9839555,20120
9841558,20048
9843558,20291
9845559,19853
9847559,20310
9849562,20155
9851564,19995
9853564,20291
9855566,19834
9857570,20266
9859571,20178
9861572,20000
9863574,20966
9865574,20908
9867577,21688
9869579,18396
9871581,14983
9873585,10872
9875589,18210
9877592,29408
9879594,45342
9881595,63050
9883598,63089
9885602,63280
9887603,48662
9889604,32118
9891605,7643
9893606,4712
9895608,7798
9897611,13562
9899614,19121
9901615,19817
9903618,20305
9905618,19788
9907618,19944
9909620,19402
9911622,19594
9913624,19925
9915625,19530
9917629,20140
9919631,20395
9921632,20629
9923635,21023
9925636,20310
9927639,20241
9929639,21489
9931641,21106
9933641,21417
9935643,21363
9937643,21790
9939643,22059
9941643,22512
9943644,23548
9945648,23569
9947649,24030
9949653,24395
9951656,24074
9953656,25629
9955657,25463
9957661,25567
9959664,26672
9961666,26474
9963668,27608
9965670,28144
9967674,29003
9969675,30018
9971678,30108
9973679,31059
9975679,30796
9977679,32489
9979682,33457
9981684,33356
9983688,35141
9985691,34941
9987695,35278
9989696,36165
9991699,35722
9993703,36691
9995704,35064
9997705,34662
9999705,33974
10001705,32495
10003705,32056
10005705,30373
10007709,29661
10009712,28679
10011712,27395
10013713,26606
10015714,25955
10017714,26369
10019716,25688
10021718,25032
10023718,25412
10025720,25199
10027724,25316
10029727,25307
10031731,24146
10033735,24705
10035739,24116
10037743,25567
10039744,25595
10041747,25224
10043747,25461
10045747,25009
10047749,25238
10049750,25627
10051753,25159
10053753,25772
10055756,25353
10057758,25367
10059759,25327
10061760,25118
10063760,25804
10065762,25393
10067763,25262
10069765,24965
10071767,24080
10073769,23971
10075773,23801
10077773,24106
10079775,24254
10081776,23669
10083779,24286
10085780,23982
10087780,23921
10089780,24211
10091780,20154
10093780,20243
10095781,20136
10097781,20271
10099782,20505
10101786,19558
10103786,20211
10105789,20515
10107790,20583
10109790,23038
10111790,23724
10113793,24802
10115794,24241
10117794,22760
10119796,22506
10121798,22165
10123801,21437
10125804,20301
10127805,18806
10129809,18847
10131812,18166
10133813,18025
10135813,18228
10137813,18017
10139816,18553
10141818,18274
10143819,18306
10145819,18452
10147822,18005
10149825,18539
10151828,18235
10153828,18284
10155829,18490
10157829,18021
10159832,18480
10161835,18312
10163837,18854
10165839,19547
10167839,19537
10169839,16609
10171839,12905
10173842,10006
10175842,17166
10177842,29491
10179842,40551
10181845,63000
10183846,63079
10185848,63358
10187848,42769
10189849,23218
10191852,6926
10193852,4602
10195855,8527
10197855,12238
10199855,17624
10201857,18159
10203858,18178
10205861,18499
10207861,17727
10209863,17728
10211865,17963
10213868,17754
10215872,18118
10217873,18133
10219873,18830
10221877,19099
10223880,18766
10225883,18896
10227883,18181
10229885,19656
10231888,19703
10233890,19081
10235893,19917
10237894,19863
10239897,20133
10241897,20904
10243901,20817
10245901,21776
10247904,21854
10249905,22092
10251906,22466
10253909,22902
10255913,23518
10257917,23280
10259921,24025
10261923,24749
10263923,24396
10265923,26041
10267923,26452
10269927,26850
10271928,27911
10273929,27438
10275930,28238
10277930,29404
10279933,29876
10281936,30878
10283939,30852
10285939,31732
10287943,31684
10289946,32101
10291946,32937
10293946,32316
10295946,31917
10297949,31032
10299950,30334
10301950,29840
10303953,28088
10305956,27934
10307956,26716
10309957,25619
10311957,25391
10313960,23477
10315960,23901
10317962,23795
10319963,23139
10321966,23340
10323966,22730
10325966,23123
10327966,23089
10329966,22656
10331969,22561
10333969,22169
10335969,22348
10337971,23440
10339972,22971
10341973,23580
10343976,22929
10345976,22981
10347976,23193
10349979,23000
10351981,23602
10353981,23352
10355983,23240
10357985,23383
10359986,22652
10361986,23543
10363988,23338
10365988,23219
10367992,23127
10369995,22207
10371998,22462
10374001,21632
10376001,21648
10378004,22127
10380004,21563
10382006,22057
10384010,21976
10386013,21732
10388016,22157
10390019,21588
10392021,22099
10394021,22024
10396023,21717
10398024,22448
10400025,21731
10402027,21690
10404029,22001
10406032,22216
10408035,23223
10410035,24857
10412035,26275
10414035,27133
10416037,25856
10418039,25379
10420043,24236
10422043,24545
10424047,22922
10426047,21626
10428049,21110
10430049,20239
10432052,20178
10434056,19585
10436057,19300
10438057,19987
10440058,19671
10442060,19769
10444064,19912
10446067,19775
10448070,20332
10450073,20026
10452076,19795
10454077,19896
10456080,19454
10458080,19940
10460083,19711
10462086,19781
10464086,20921
10466089,20970
10468093,21723
10470093,17832
10472096,13610
10474096,10802
10476100,18150
10478103,34547
10480104,45014
10482106,63065
10484110,63091
10486114,63063
10488114,46775
10490114,19321
10492116,7289
10494116,4550
10496116,10638
10498117,13650
10500117,19076
10502117,19890
10504117,20301
10506117,19503
10508120,19475
10510123,19057
10512125,19256
10514126,19523
10516126,19141
10518126,19874
10520129,20533
10522132,20569
10524133,21030
10526135,20162
10528138,20233
10530138,21636
10532138,20893
10534141,21439
10536141,21454
10538143,21839
10540146,22100
10542149,22538
10544150,23663
10546150,23665
10548151,23990
10550153,24489
10552156,24106
10554156,25673
10556159,25497
10558162,25447
10560163,26422
10562166,26408
10564169,27257
10566169,28031
10568172,28831
10570173,29625
10572176,29756
10574176,30700
10576179,30556
10578179,32035
10580182,33474
10582185,33014
10584185,34727
10586186,34816
10588187,34585
10590187,35894
10592189,35454
10594189,36151
10596191,34996
10598192,33679
10600195,33786
10602198,32005
10604198,31068
10606201,30183
10608203,29091
10610204,28126
10612204,26952
10614208,26246
10616212,25826
10618212,25828
10620214,25744
10622214,24943
10624216,25349
10626219,25234
10628222,25063
10630224,25395
10632225,24043
10634228,24638
10636231,24420
10638231,25371
10640234,25774
10642237,25146
10644238,25437
10646238,25236
10648238,24954
10650241,25768
10652243,25170
10654243,25706
10656244,25603
10658246,25028
10660248,25456
10662250,25186
10664253,25672
10666255,25622
10668255,24942
10670258,24851
10672261,24130
10674261,23899
10676261,24120
10678265,23841
10680268,24300
10682272,23883
10684274,24206
10686277,24178
10688278,23841
10690281,24314
10692284,19058
10694284,19160
10696288,19101
10698288,19156
10700289,19067
10702291,18500
10704293,19135
10706296,19607
10708297,19470
10710300,21688
10712302,22611
10714302,23420
10716305,23145
10718306,21435
10720306,21413
10722308,21093
10724311,19699
10726313,19151
10728315,17665
10730318,17825
10732321,17518
10734323,16924
10736324,17276
10738324,16928
10740328,17383
10742331,17193
10744333,17191
10746333,17722
10748336,17308
10750339,17726
10752341,17235
10754343,16995
10756343,17384
10758343,17011
10760346,17325
10762349,17225
10764349,17690
10766350,18655
10768350,18524
10770352,15599
10772355,10721
10774355,9104
10776356,16400
10778359,33530
10780361,38362
10782363,63044
10784366,63088
10786366,63115
10788366,39152
10790368,15205
10792372,6311
10794376,4027
10796376,9894
10798377,11603
10800377,16681
10802381,17474
10804383,17322
10806383,17375
10808385,16617
10810386,16559
10812387,16918
10814389,16574
10816393,17050
10818397,17142
10820399,17740
10822400,18105
10824402,17661
10826403,17810
10828404,17603
10830407,18478
10832409,18599
10834409,18113
10836412,18780
10838414,19003
10840415,18866
10842415,19954
10844419,20100
10846420,20631
10848420,20901
10850424,20857
10852424,21486
10854427,21723
10856429,22029
10858433,21995
10860435,22644
10862435,23482
10864435,23175
10866435,24387
10868437,25439
10870439,25107
10872443,26459
10874444,26420
10876446,26678
10878448,28217
10880448,28202
10882451,29089
10884451,29653
10886451,30117
10888454,30477
10890456,30114
10892458,31193
10894458,30834
10896460,30204
10898463,29364
10900463,28362
10902464,28302
10904467,26636
10906467,26201
10908468,25390
10910468,23684
10912470,23897
10914473,22583
10916473,22606
10918475,22613
10920478,21594
10922480,21830
10924483,21486
10926483,21541
10928484,21767
10930484,21265
10932487,21391
10934491,21173
10936494,21184
10938496,22085
10940496,21567
10942496,22059
10944499,21580
10946500,21412
10948504,21794
10950506,21646
10952508,22083
10954510,21939
10956511,21762
10958512,21878
10960512,21330
10962512,22077
10964516,21975
10966519,21748
10968522,21768
10970523,21011
10972525,21297
10974527,20543
10976530,20567
10978530,21040
10980530,20609
10982532,20943
10984532,20928
10986536,20609
10988538,21020
10990540,20632
10992541,21999
10994541,22027
10996541,21580
10998542,22491
11000543,21590
11002543,21570
11004546,22051
11006546,22385
11008549,23361
11010552,24925
11012552,26849
11014556,27426
11016559,26209
11018562,25046
11020565,24341
11022568,24499
11024571,22711
11026572,21600
11028572,21037
11030572,20146
11032576,20186
11034578,20254
11036579,19478
11038579,20046
11040582,20013
11042583,20100
11044583,20300
11046586,19815
11048589,20302
11050589,20100
11052590,20059
11054594,20317
11056597,19815
11058600,20314
11060603,20085
11062605,20124
11064605,20323
11066607,20442
11068608,21263
11070611,21557
11072614,18177
11074614,15634
11076616,10638
11078616,18404
11080618,29966
11082621,44491
11084623,63065
11086623,63051
11088627,63060
11090631,48621
11092635,28590
11094636,7505
11096636,4635
11098639,8892
11100639,13385
11102642,19213
11104646,20053
11106649,19832
11108650,20390
11110653,19821
11112656,19469
11114658,19855
11116659,19455
11118660,19954
11120661,20048
11122663,20342
11124664,20993
11126666,20378
11128668,20691
11130671,20146
11132674,21357
11134675,21605
11136677,20888
11138677,21684
11140680,21835
11142683,21739
11144687,23131
11146691,23034
11148691,23905
11150695,24078
11152697,24134
11154698,24679
11156699,25085
11158703,25697
11160707,25617
11162709,26215
11164710,27227
11166710,26975
11168713,28470
11170713,29164
11172716,29513
11174720,30850
11176724,30423
11178728,31199
11180730,32685
11182733,33033
11184736,34086
11186738,34383
11188738,35241
11190738,35365
11192740,35519
11194742,36497
11196746,35872
11198746,35541
11200748,34595
11202751,33532
11204755,33159
11206758,31181
11208760,30779
11210760,29580
11212762,28425
11214766,27957
11216769,25940
11218772,26722
11220775,26173
11222775,25569
11224778,25531
11226782,24785
11228785,25389
11230789,25074
11232792,25174
11234792,24689
11236796,24028
11238799,24671
11240800,25381
11242802,25467
11244802,25734
11246804,24749
11248804,25359
11250806,25206
11252807,25322
11254808,25823
11256812,25178
11258813,25698
11260815,25334
11262818,24912
11264819,25749
11266821,25204
11268821,25679
11270824,25290
11272824,24495
11274825,24686
11276826,23465
11278830,24112
11280833,24139
11282835,23802
11284836,24306
11286836,23798
11288840,24188
11290843,24174
11292843,23781
11294847,22341
11296851,21862
11298855,22053
11300856,22346
11302857,21568
11304857,21778
11306857,21710
11308858,22627
11310862,23113
11312864,24649
11314866,26239
11316867,26818
11318870,26349
11320873,25497
11322874,24023
11324874,24665
11326876,22987
11328880,22072
11330880,21030
11332882,20120
11334886,20293
11336887,19319
11338891,19655
11340893,19878
11342894,19456
11344895,19950
11346896,19684
11348897,20138
11350897,20320
11352898,19814
11354899,19967
11356900,19747
11358902,19687
11360906,19933
11362909,19472
11364909,19925
11366910,20791
11368910,21013
11370910,21740
11372911,17669
11374915,13499
11376916,10715
11378916,18259
11380918,34788
11382920,44356
11384922,63071
11386924,63023
11388928,63032
11390931,46938
11392932,23917
11394933,7406
11396934,4569
11398937,9842
11400938,13594
11402940,18677
11404940,20001
11406941,20092
11408944,19707
11410947,19456
11412971,18707
11414971,19544
11416973,19291
11418973,19364
11420974,19870
11422981,19980
11424982,21027
11426984,20756
11428986,20423
11430986,20329
11432986,21106
11434986,21515
11436986,21264
11438989,21423
11440989,22023
11443227,21497
11445227,23141
11447230,23472
11449230,23677
11451233,24254
11453235,23961
11455236,24700
11457236,25497
11459239,25425
11461239,25778
11463242,25848
11465242,26954
11467245,26971
11469249,27785
11471251,29260
11473254,29061
11475255,30395
11477256,30496
11479259,30354
11481262,32617
11483265,32707
11485268,33811
11487269,34413
11489272,34661
11491276,35287
11493276,35130
11495277,36207
11497279,35876
11499281,34866
11501285,34072
11503289,33041
11505289,32751
11507289,30553
11509292,30207
11511293,29253
11513296,27345
11515299,27518
11517301,25780
11519303,25973
11521306,26006
11523306,25202
11525308,25499
11527311,25020
11529314,25202
11531316,25361
11533317,24793
11535317,24696
11537317,24391
11539319,24370
11541321,25740
11543322,25132
11545324,25708
11547324,25176
11549327,25072
11551330,25412
11553331,25162
11555335,25787
11557338,25569
11559340,25489
11561343,25451
11563345,24781
11565347,25728
11567347,25559
11569349,25291
11571351,25417
11573354,24262
11575357,24584
11577361,23747
11579362,23896
11581366,24280
11583368,23704
11585369,24279
11587369,24096
11589372,23714
11591375,24294
11593377,23698
11595378,21886
11597379,21604
11599382,21476
11601384,22125
11603385,21025
11605386,21315
11607388,21630
11609390,22161
11611391,23000
11613391,24564
11615392,26592
11617395,27054
11619398,25899
11621402,24694
11623402,23869
11625406,24115
11627409,22310
11629412,21307
11631414,20698
11633416,19727
11635416,19791
11637418,19454
11639418,19360
11641419,19980
11643421,19655
11645424,19831
11647427,19913
11649431,19467
11651434,19960
11653436,19637
11655437,19828
11657441,19912
11659443,19470
11661445,19950
11663446,19665
11665447,19813
11667448,20579
11669450,20669
11671454,21081
11673457,17668
11675461,12065
11677464,11784
11679466,18450
11681466,39750
11683468,46911
11685470,63089
11687470,63051
11689473,63099
11691475,45182
11693475,13917
11695476,6903
11697477,4484
11699479,11319
11701482,13902
11703483,19051
11705484,19735
11707484,19914
11709488,19446
11711491,19336
11713491,18938
11715492,19409
11717493,19522
11719497,19102
11721501,19942
11723504,20255
11725508,20538
11727508,20615
11729511,19569
11731514,20093
11733515,21036
11735518,20910
11737518,21033
11739519,20835
11741523,21702
11743526,21628
11745530,22543
11747534,23380
11749536,23019
11751537,23933
11753538,23958
11755542,24282
11757542,25331
11759546,24781
11761549,25679
11763552,26081
11765552,26816
11767555,27290
11769555,27582
11771557,29204
11773560,29198
11775564,29855
11777567,30388
11779571,30047
11781574,32254
11783574,32825
11785576,33258
11787576,34431
11789576,34054
11791580,35062
11793581,35101
11795583,35481
11797583,35811
11799587,34140
11801591,33600
11803592,32633
11805593,32119
11807594,30435
11809594,29271
11811594,29089
11813595,27314
11815596,27145
11817596,26089
11819596,25471
11821599,25934
11823599,25072
11825600,24905
11827602,24951
11829606,24430
11831607,25024
11833607,24423
11835610,24135
11837614,24233
11839617,23867
11841620,25404
11843620,25078
11845621,25094
11847621,24997
11849622,24444
11851623,25122
11853627,25054
11855631,25127
11857634,25326
11859637,24742
11861640,25046
11863641,24825
11865645,25132
11867648,25375
11869651,24639
11871654,25103
11873657,24092
11875657,23982
11877659,23560
11879661,23252
11881662,23927
11883663,23653
11885667,23751
11887667,23925
11889670,23345
11891670,23931
11893674,23191
11895676,20278
11897679,20291
11899683,19906
11901686,20639
11903687,19819
11905687,19776
11907691,20267
11909692,20683
11911693,21848
11913697,22934
11915697,24735
11917701,25166
11919703,24097
11921704,23041
11923704,22680
11925707,22510
11927708,20663
11929709,19762
11931711,19533
11933712,18824
11935713,18401
11937716,18131
11939717,18264
11941718,18388
11943718,18354
11945718,18053
11947721,18594
11949724,18472
11951727,18761
11953730,18618
11955734,18029
11957738,18472
11959739,18085
11961740,18408
11963742,18720
11965743,18330
11967747,19555
11969751,19565
11971753,19094
11973755,16650
11975755,10739
11977758,12141
11979760,17291
11981760,37765
11983760,51591
11985764,63057
11987766,63079
11989769,62988
11991772,41215
11993773,10341
11995774,6114
11997774,4419
11999777,11187
12001778,13854
12003781,17942
12005781,18370
12007785,18685
12009786,18162
12011788,17744
12013790,17788
12015793,17657
12017797,18125
12019800,17981
12021803,18402
12023806,19410
12025807,19077
12027807,19662
12029807,18684
12031808,19079
12033810,19926
12035810,19450
12037810,19901
12039814,19744
12041816,19986
12043818,20641
12045818,20908
12047820,21944
12049821,22091
12051822,22012
12053825,22790
12055828,22667
12057828,23516
12059832,23456
12061834,23436
12063838,24644
12065842,24787
12067842,25597
12069845,25950
12071848,26878
12073851,27996
12075855,27781
12077855,28537
12079855,28985
12081858,29468
12083858,31110
12085861,30876
12087863,31770
12089863,32090
12091865,31875
12093865,33234
12095866,32837
12097869,32715
12099869,32215
12101869,30630
12103872,30736
12105874,29644
12107875,28338
12109875,27751
12111876,26625
12113879,25972
12115882,24828
12117883,24163
12119886,24196
12121889,23496
12123890,23627
12125894,22818
12127894,23068
12129897,23125
12131898,22640
12133898,23055
12135898,22514
12137898,22626
12139900,23144
12141903,22967
12143905,23561
12145907,23180
12147907,22902
12149910,23255
12151912,22755
12153912,23562
12155915,23432
12157915,23093
12159918,23592
12161919,22778
12163921,23248
12165924,23596
12167927,23079
12169929,23360
12171932,22665
12173934,22808
12175934,22338
12177937,21713
12179940,22433
12181942,22032
12183946,22414
12185949,22404
12187952,22005
12189955,22434
12191958,21988
12193961,21918
12195961,21253
12197961,20896
12199964,21580
12201967,21413
12203967,20946
12205969,21124
12207969,20920
12209973,22085
12211977,22506
12213978,24102
12215978,26153
12217980,25524
12219981,25745
12221981,23444
12223983,23362
12225984,23536
12227987,21054
12229989,20899
12231990,20046
12233990,19383
12235994,19202
12237997,18395
12239999,19186
12242002,18969
12244005,18976
12246008,19194
12248010,18842
12250013,19551
12252013,19406
12254013,19169
12256014,19184
12258015,18754
12260016,19133
12262019,19041
12264019,18840
12266021,19692
12268024,19932
12270025,20898
12272026,18907
12274028,16726
12276031,10907
12278031,14482
12280031,18296
12282034,41594
12284035,60427
12286038,63111
12288040,62946
12290042,60307
12292044,42801
12294047,10292
12296047,5712
12298047,4428
12300049,12265
12302051,15852
12304054,18492
12306057,19502
12308057,18972
12310059,19136
12312059,18446
12314059,18334
12316062,18861
12318065,18518
12320068,18913
12322071,19127
12324074,19741
12326074,20295
12328075,19974
12330079,19541
12332081,20227
12334081,20464
12336083,20735
12338086,20565
12340089,20848
12342089,21313
12344089,21232
12346091,22165
12348091,22546
12350091,22778
12352093,23147
12354096,22973
12356100,24103
12358100,24414
12360102,24288
12362104,25162
12364108,25084
12366110,26410
12368110,26627
12370111,26810
12372114,28598
12374114,28368
12376116,29338
12378117,29489
12380117,30080
12382120,31122
12384122,31500
12386124,32905
12388124,33209
12390127,33177
12392130,34236
12394133,33699
12396134,34714
12398134,34109
12400134,33155
12402138,32401
12404141,31019
12406144,31215
12408148,29245
12410152,28541
12412152,28296
12414154,25957
12416157,25726
12418157,25141
12420161,25096
12422163,25056
12424163,24038
12426163,24308
12428165,24063
12430165,23892
12432166,24327
12434166,23348
12436166,23530
12438166,23464
12440169,23618
12442171,24639
12444172,24179
12446175,24381
12448179,24153
12450180,23785
12452182,24516
12454182,24262
12456182,24496
12458186,24579
12460188,24073
12462192,24332
12464195,24074
12466196,24527
12468197,24561
12470201,23893
12472204,24354
12474205,23211
12476206,23029
12478209,22742
12480209,22643
12482209,23282
12484211,22861
12486215,22982
12488219,23210
12490220,22688
12492222,23223
12494225,22439
12496228,22368
12498231,22392
12500233,22147
12502235,22842
12504235,21849
12506238,22170
12508238,22401
12510241,22918
12512244,24910
12514247,25356
12516250,27590
12518251,27283
12520251,26546
12522253,25054
12524256,24666
12526257,24835
12528260,22536
12530260,21357
12532263,21433
12534264,20425
12536264,20014
12538265,19945
12540268,19773
12542269,20275
12544271,20066
12546273,20064
12548275,20471
12550276,20132
12552278,20603
12554279,20271
12556279,20014
12558280,20321
12560284,19854
12562286,20256
12564289,20170
12566290,20516
12568290,21405
12570293,21759
12572295,19679
12574295,18081
12576298,11094
12578298,16275
12580300,19192
12582301,43695
12584303,63012
12586305,62973
12588305,63077
12590309,59159
12592310,45129
12594312,9405
12596315,5509
12598317,4437
12600318,12773
12602320,17400
12604322,19730
12606322,20156
12608322,20435
12610325,19965
12612329,19519
12614332,19722
12616336,19471
12618339,19950
12620341,19868
12622344,20229
12624348,21110
12626348,20864
12628348,21389
12630351,20421
12632353,21353
12634353,22079
12636353,21262
12638356,21951
12640360,21912
12642362,22239
12644365,23136
12646369,23015
12648369,24286
12650372,24142
12652374,24465
12654377,24923
12656377,25161
12658377,26153
12660379,25778
12662381,26596
12664384,27223
12666387,27254
12668390,28599
12670393,28631
12672396,30122
12674397,30920
12676397,30464
12678401,31616
12680401,32378
12682403,33035
12684404,34413
12686408,34445
12688410,35538
12690412,35365
12692414,36143
12694414,36600
12696417,36245
12698418,36342
12700418,35407
12702418,34314
12704418,33773
12706418,32658
12708421,31382
12710423,30020
12712425,29973
12714426,28316
12716427,26710
12718431,26896
12720431,26435
12722434,26194
12724437,25990
12726440,25201
12728443,25816
12730446,25297
12732449,25706
12734450,25138
12736451,24476
12738451,25050
12740455,25316
12742457,25958
12744458,26113
12746460,25240
12748460,25807
12750463,25388
12752466,25766
12754469,25998
12756471,25529
12764021,25926
12766024,25534
12768027,26007
12770028,25880
12772029,25272
12774032,25134
12776036,24294
12778040,24206
12780043,24507
12782047,24186
12784047,24652
12786049,24108
12788052,24552
12790056,24451
12792059,24146
12794061,23332
12796061,19577
12798061,19930
12800062,19954
12802066,19976
12804067,19667
12806068,19356
12808070,19866
12810070,20472
12812070,20815
12814074,22431
12816076,24026
12818078,24147
12820079,23811
12822083,21762
12824085,22137
12826087,21733
12828089,20038
12830090,19498
12832092,18364
12834096,18213
12836099,17639
12838101,17639
12840105,17979
12842107,17645
12844109,18089
12846110,17823
12848113,17964
12850113,17999
12852116,17653
12854117,18086
12856117,17890
12858120,17911
12860122,18034
12862122,17642
12864122,18110
12866126,18137
12868129,18595
12870131,19448
12872132,17731
12874132,15962
12876132,10196
12878134,12708
12880135,17253
12882138,37108
12884139,51995
12886140,62662
12888143,62738
12890143,60859
12892144,39282
12894147,9687
12896147,5616
12898151,4009
12900154,11284
12902157,13897
12904158,17626
12906159,17835
12908161,17859
12910163,18089
12912164,16998
12914168,17522
12916168,17593
12918169,17533
12920171,17882
12922172,17629
12924173,18733
12926173,18698
12928176,18555
12930178,18210
12932178,18500
12934181,19490
12936184,19090
12938188,19065
12940191,19585
12942194,19434
12944197,20153
12946199,20509
12948200,20946
12950203,21537
12952205,21314
12954209,22033
12956209,22307
12958211,22326
12960214,22878
12962216,22991
12964219,23796
12966223,24419
12968227,24601
12970228,25407
12972232,26189
12974235,26928
12976238,27113
12978238,27034
12980241,28271
12982243,28433
12984243,29860
12986245,30475
12988247,30580
12990250,31239
12992252,30958
12994252,31828
12996254,32089
12998257,31068
13000259,31253
13002261,29632
13004262,29364
13006266,28867
13008269,26911
13010271,26898
13012273,25862
13014276,24751
13016276,23867
13018279,23241
13020280,23576
13022282,22602
13024283,22816
13026283,22311
13028283,22025
13030287,22484
13032288,21953
13034290,22229
13036291,22087
13038291,21618
13040294,22594
13042297,22432
13044301,22858
13046305,22520
13048308,22045
13050311,22474
13052312,22228
13054312,22739
13056316,22724
13058320,22352
13060320,22870
13062324,22103
13064328,22620
13066328,22765
13068328,22318
13070330,22666
13072330,22101
13074331,22051
13076334,21573
13078337,20693
13080339,21767
13082340,21385
13084342,21652
13086343,21718
13088343,21208
13090345,21830
13092348,21419
13094348,21785
13096348,22059
13098351,21555
13100355,22342
13102356,22199
13104356,21635
13106359,21898
13108361,21481
13110361,23121
13112363,24002
13114366,25112
13116369,27065
13118372,26135
13120374,26472
13122375,24444
13124379,24437
13126379,24634
13128380,21737
13130383,21561
13132385,20771
13134387,20173
13136390,19918
13138393,19053
13140394,19561
13142396,19687
13144397,19711
13146398,19923
13148400,19448
13150402,20182
13152403,20111
13154406,20039
13156408,20007
13158410,19474
13160414,19938
13162416,19788
13164416,19619
13166417,19924
13168417,20174
13170421,20942
13172424,21586
13174427,18660
13176429,17778
13178430,10849
13180432,16844
13182434,19033
13184437,43346
13186440,62998
13188440,62891
13190442,62986
13192444,54853
13194445,43882
13196445,8812
13198445,5202
13200449,4419
13202451,13116
13204451,17594
13206454,19479
13208457,19776
13210459,20021
13212461,19739
13214461,18969
13216462,19446
13218463,19156
13220464,19531
13222468,19698
13224472,19528
13226472,20943
13228475,20627
13230478,20944
13232479,20260
13234480,20844
13236483,21766
13238487,20985
13240488,21533
13242488,21648
13244491,21596
13246491,22916
13248494,22802
13250497,23781
13252497,24110
13254498,23717
13256499,24647
13258499,25176
13260502,25575
13262504,25716
13264508,25708
13266512,26502
13268515,26773
13270516,27771
13272517,28144
13274517,28995
13276520,30315
13278523,30050
13280526,30640
13282529,32060
13284533,32016
13286536,33756
13288540,33936
13290544,34682
13292546,35006
13294548,35087
13296551,35971
13298553,35554
13300554,35312
13302556,35009
13304559,33182
13306559,32982
13308559,31850
13310562,30538
13312564,29420
13314564,28963
13316567,27651
13318567,25838
13320569,26095
13322569,25924
13324570,25347
13326570,25734
13328570,24859
13330572,25393
13332576,25234
13334578,24833
13336578,24834
13338582,24179
13340583,24505
13342585,25395
13344589,25155
13346592,25807
13348592,25076
13350595,25210
13352597,25298
13354598,25036
13356602,25728
13358605,25384
13360608,25641
13362609,25601
13364612,24828
13366612,25663
13368615,25413
13370618,25575
13372619,25433
13374620,24799
13376621,24669
13378624,23769
13380626,23750
13382628,24219
13384628,23661
13386630,24308
13388633,23931
13390636,24070
13392639,24234
13394643,23709
13396646,19788
13398650,17870
13400650,18005
13402652,18051
13404652,17627
13406654,17774
13408658,17777
13410661,18001
13412663,18758
13414663,19743
13416663,20696
13418667,21868
13420667,21513
13422670,21556
13424673,19480
13426673,19916
13428674,19724
13430675,17899
13432675,17261
13434679,16621
13436682,16607
13438682,15949
13440682,15705
13442683,16302
13444684,16011
13446686,16203
13448687,16220
13450689,16170
13452690,16666
13454692,16375
13456694,16246
13458696,16253
13460697,15916
13462697,16306
13464697,16121
13466698,16100
13468700,16802
13470703,16578
13472703,17700
13474706,15065
13476707,14110
13478710,9094
13480710,13729
13482712,16399
13484715,35495
13486718,59590
13488718,63070
13490721,62994
13492723,43521
13494727,31234
13496730,6535
13498733,4357
13500734,4008
13502734,10893
13504734,14638
13506735,15815
13508738,16601
13510740,15928
13512743,16311
13514746,15386
13516748,15724
13518748,15900
13520749,15528
13522749,16199
13524751,16224
13526753,16800
13528753,16975
13530756,16549
13532756,16643
13534757,17447
13536758,17371
13538758,17360
13540761,17323
13542761,17665
13544763,17998
13546765,18232
13548768,18878
13550770,18810
13552773,19399
13554773,19520
13556773,19472
13558777,20501
13560780,20277
13562782,20528
13564786,21481
13566788,21291
13568791,22145
13570795,22344
13572795,23008
13574798,24168
13576800,23991
13578803,24703
13580803,24667
13582805,25996
13584808,26372
13586809,26593
13588812,27839
13590815,27497
13592816,28108
13594816,28811
13596817,28386
13598817,29019
13600817,28055
13602818,27724
13604821,27193
13606822,25945
13608823,26020
13610827,24457
13612828,23902
13614828,23753
13616831,21959
13618834,21604
13620835,21100
13622838,21239
13624838,20719
13626841,20124
13628841,20705
13630844,20397
13632846,20452
13634847,20599
13636849,19574
13638852,19927
13640852,19708
13642855,20348
13644858,20634
13646859,20137
13648859,20616
13650861,20487
13652863,20378
13654865,20645
13656865,20152
13658865,20628
13660868,20491
13662869,20325
13664872,20635
13666875,20126
13668879,20621
13670882,20501
13672886,20280
13674888,20477
13676891,19446
13678891,19261
13680892,19147
13682892,19226
13684892,19544
13686895,19152
13688898,19537
13690901,19479
13692903,19204
13694903,19575
13696904,21034
13698904,21606
13700906,21662
13702907,21487
13704908,21912
13706911,21083
13708914,21574
13710917,21790
13712921,22277
13714923,24643
13716925,24973
13718928,26977
13720930,26466
13722931,25624
13724935,24208
13726935,23797
13728935,23608
13730937,21699
13732939,20369
13734941,20443
13736944,19599
13738947,19561
13740951,19661
13742973,19715
13744973,19916
13746973,19410
13748975,19938
13750977,19729
13752979,19711
13754980,19941
13756980,19470
13758984,19900
13760987,19771
13762988,19589
13764989,19914
13766989,19527
13768991,20525
13770994,20747
13772994,20949
13774996,18218
13776997,16324
13778997,10965
13780999,17735
13783001,24630
13785002,44277
13787003,63033
13789004,62888
13791005,62994
13793007,48773
13795007,33272
13797008,7584
13799011,4753
13801013,7482
13803014,13055
13805016,18832
13807017,19316
13809020,19902
13811020,19882
13813020,19420
13815021,19146
13817023,19152
13819027,19470
13821030,19455
13823030,19399
13825030,20161
13827033,20313
13829036,20297
13831038,20325
13833041,19456
13835041,21226
13837041,20945
13839041,20839
13841044,21321
13843044,21000
13845045,21756
13847049,22478
13849051,22726
13851051,23560
13853054,23292
13855058,24002
13857061,24014
13859064,24959
13861067,25330
13863067,24742
13865069,26297
13867070,26472
13869073,26884
13871075,28117
13873077,27970
13875078,29306
13877079,29774
13879082,29753
13881084,30475
13883086,31385
13885089,32683
13887092,32985
13889092,33739
13891095,34569
13893098,34048
13895101,35448
13897102,35181
13899103,35549
13901106,34892
13903106,33526
13905107,33404
13907108,31974
13909111,31127
13911115,30076
13913118,28535
13915118,28339
13917122,27129
13919124,26189
13921125,26046
13923127,25530
13925128,25494
13927131,24789
13929134,24902
13931136,24877
13933139,24395
13935141,25063
13937142,23945
13939146,24166
13941146,24204
13943149,24711
13945152,25436
13947152,24958
13949155,24897
13951157,24937
13953158,24448
13955161,25395
13957162,24965
13959164,25282
13961167,25302
13963168,24668
13965169,25038
13967169,24985
13969170,25223
13971170,25296
13973173,24429
13975175,24692
13977175,23978
13979179,23425
13981179,23702
13983179,23321
13985180,23915
13987183,23671
13989184,23681
13991186,23941
13993186,23349
13995186,23930
13997188,18541
13999190,17936
14001192,18079
14003193,17679
14005196,17959
14007196,17652
14009196,17817
14011200,18252
14013201,18372
14015201,20357
14017204,20928
14019207,21652
14021209,21831
14023211,20715
14025214,19963
14027217,19784
14029219,18931
14031221,18143
14033224,16705
14035228,16812
14037228,16569
14039228,15697
14041229,16090
14043230,15982
14045232,16225
14047235,16219
14049238,15915
14051241,16634
14053243,16342
14055246,16601
14057246,16301
14059246,15874
14061250,16277
14063253,15986
14065255,16219
14067255,16241
14069258,16518
14071259,17353
14073259,17518
14075260,14678
14077262,11662
14079266,8778
14081267,14971
14083268,25766
14085272,35317
14087274,62996
14089275,62904
14091276,63007
14093279,38839
14095279,22846
14097279,6172
14099283,4087
14101283,7431
14103287,10909
14105287,15372
14107291,16287
14109291,16181
14111292,16323
14113294,15812
14115297,15366
14117297,15838
14119299,15495
14121302,15906
14123302,16113
14125305,16312
14127308,16994
14129310,16657
14131310,16739
14133313,16545
14135313,17295
14137313,17552
14139315,17004
14141318,17638
14143318,17804
14145319,17630
14147320,18738
14149321,18758
14151325,19057
14153328,19494
14155331,19300
14157332,20024
14159335,20289
14161338,20533
14163340,20591
14165344,21122
14167346,21898
14169349,21822
14171351,22602
14173353,23505
14175357,23648
14177361,24616
14179363,24431
14181365,24813
14183368,26306
14185369,26225
14187369,27237
14189372,27450
14191372,27829
14193374,28262
14195375,28270
14197375,29032
14199378,28656
14201382,28113
14203384,27679
14205386,26594
14207390,26519
14209392,25073
14211395,24573
14213399,23916
14215402,22610
14217403,22478
14219406,21039
14221408,21323
14223412,21244
14225414,20343
14227417,20683
14229419,20196
14231419,20539
14233422,20518
14235422,20221
14237422,19996
14239425,19591
14241428,19836
14243431,20494
14245431,20162
14247434,20698
14249436,20329
14251437,20561
14253439,20569
14255442,20198
14257445,20667
14259447,20355
14261447,20531
14263449,20593
14265449,20170
14267452,20653
14269452,20368
14271453,20515
14273457,20611
14275457,19748
14277460,19972
14279464,18959
14281467,19276
14283467,19466
14285469,19139
14287470,19572
14289472,19324
14291474,19366
14293474,19536
14295476,19097
14297479,18918
14299482,18587
14301483,18636
14303484,19125
14305486,18504
14307490,18836
14309494,18651
14311494,19245
14313495,19946
14315497,21102
14317500,22824
14319502,23380
14321504,22544
14323507,21853
14325508,20505
14327510,21009
14329512,19711
14331512,18574
14333516,18182
14335519,17282
14337522,17367
14339524,16880
14341527,17002
14343527,17341
14345527,16936
14347527,17341
14349530,17297
14351530,17038
14353532,17376
14355534,16963
14357537,17277
14359538,17272
14361540,16918
14363542,17382
14365542,17104
14367543,17271
14369545,17966
14371547,18057
14373548,18807
14375551,15522
14377552,11804
14379552,9308
14381554,15762
14383555,29531
14385558,38458
14387561,63002
14389561,62963
14391564,62907
14393566,40339
14395566,19336
14397566,6480
14399566,4103
14401568,8312
14403570,11812
14405573,16401
14407577,17070
14409579,17361
14411583,16917
14413583,16970
14415585,16486
14417586,16862
14419586,16984
14421589,16581
14423592,17347
14425596,17705
14427600,17981
14429601,18148
14431604,17125
14433605,17320
14435606,18590
14437609,18358
14439610,18463
14441612,18405
14443612,18796
14445613,18721
14447614,19430
14449614,20379
14451616,20295
14453618,20512
14455621,20812
14457624,20498
14459626,22087
14461629,21727
14463629,21990
14465629,22727
14467629,22797
14469631,23606
14471633,23749
14473637,24738
14475639,25310
14477642,25443
14479642,26345
14481644,26039
14483645,27608
14485649,28312
14487652,27986
14489654,29705
14491656,29563
14493659,29870
14495659,30383
14497659,30068
14499662,30870
14501663,29671
14503665,28944
14505668,28565
14507671,27379
14509673,26858
14511676,25687
14513680,25312
14515684,24264
14517684,23404
14519684,22617
14521687,22040
14523690,22432
14525692,22059
14527696,21501
14529699,21772
14531702,21289
14533704,21682
14535707,21638
14537708,20615
14539708,21048
14541708,20665
14543710,21898
14545713,22025
14547717,21686
14549719,21810
14551720,21389
14553723,21682
14555726,22031
14557729,21630
14559730,22129
14561731,21731
14563732,21702
14565733,21680
14567736,21606
14569740,22123
14571743,21746
14573744,21651
14575747,21181
14577748,20566
14579752,20709
14581754,20324
14583755,20499
14585755,20568
14587759,20174
14589763,20655
14591765,20303
14593768,20601
14595768,20565
14597768,19142
14599772,19591
14601773,19282
14603773,19800
14605775,19376
14607776,18693
14609779,19561
14611781,20035
14613782,20509
14615782,22378
14617782,23065
14619783,24255
14621785,23360
14623789,22059
14625789,21756
14627793,21254
14629795,20157
14631797,19337
14633800,18644
14635804,18310
14637804,17640
14639807,17424
14641809,17347
14643813,17588
14645816,17710
14647819,17261
14649822,17721
14651825,17945
14653827,17859
14655828,18166
14657828,17302
14659831,17722
14661834,17624
14663835,17436
14665835,17746
14667835,17353
14669837,18737
14671839,18957
14673842,18769
14675842,16132
14677845,11503
14679846,9646
14681848,16597
14683848,31913
14685850,39656
14687854,63034
14689856,62922
14691857,63027
14693857,40361
14695860,14755
14697860,6257
14699862,4015
14701866,9661
14703866,12073
14705866,17165
14707868,17494
14709872,18045
14711875,17688
14713877,16872
14715878,17050
14717878,17104
14719882,17300
14721886,17326
14723889,17293
14725890,18562
14727890,18540
14729893,18728
14731896,18266
14733896,17674
14735897,19153
14737897,18692
14739900,18678
14741900,19172
14743900,19018
14745901,19543
14747902,20422
14749906,20621
14751909,20981
14753912,20862
14755912,21548
14757912,21578
14759914,22424
14761916,22812
14763918,22296
14765922,23501
14767926,23881
14769929,23931
14771931,24968
14773931,25593
14775931,26437
14777935,26997
14779938,26737
14781942,27225
14783945,28310
14785945,29485
14787945,29526
14789948,30267
14791950,31112
14793951,30786
14795955,31475
14797958,31455
14799961,31553
14801961,31239
14803962,29399
14805963,29718
14807963,28691
14809963,27341
14811963,27179
14813963,25456
14815963,25046
14817964,24373
14819967,23024
14821969,23162
14823973,22611
14825973,22782
14827976,22287
14829979,22245
14831982,22453
14833984,21914
14835987,22426
14837991,21497
14839994,21594
14841995,21885
14843997,22227
14845997,22796
14847997,22614
14850000,22207
14852000,22504
14854001,21946
14856004,22760
14858004,22612
14860007,22460
14862010,22826
14864010,22015
14866011,22472
14868012,22655
14870012,22417
14872016,22794
14874016,22037
14876016,21838
14878019,21557
14880023,20616
14882024,21313
14884027,21025
14886029,21303
14888032,21265
14890032,20908
14892034,21401
14894037,20984
14896038,21230
14898039,19529
14900039,19150
14902042,19588
14904044,19595
14906047,19211
14908047,19148
14910050,19055
14912052,20381
14914053,20336
14916053,22239
14918057,23781
14920060,23662
14922063,23616
14924067,21903
14926068,21546
14928068,21724
14930069,19541
14932071,19497
14934074,18636
14936075,18106
14938078,17989
14940080,16966
14942081,17710
14944083,17528
14946086,17566
14948089,17718
14950093,17262
14952096,18077
14954098,17945
14956099,17871
14958099,17741
14960099,17304
14962101,17704
14964102,17579
14966102,17432
14968103,17873
14970105,18468
14972109,19049
14974113,18634
14976114,15711
14978114,10730
14980114,10089
14982118,16695
14984122,35639
14986123,43172
14988126,62944
14990128,62959
14992130,63043
14994133,40185
14996133,12834
14998134,5984
15000137,3974
15002140,10750
15004142,12792
15006146,16986
15008150,17979
15010154,17629
15012156,17724
15014160,16971
15016161,16891
15018165,17347
15020167,16950
15022170,17359
15024173,17622
15026175,18271
15028177,18814
15030179,18462
15032181,18179
15034183,18145
15036184,18732
15038186,18924
15040188,18560
15042190,19065
15044193,19410
15046195,19229
15048197,20661
15050199,20675
15052201,20860
15054203,21325
15056207,21165
15058207,21870
15060207,22504
15062209,22600
15064213,22872
15066214,22934
15068214,24166
15070214,24151
15072218,24737
15074218,26221
15076221,25919
15078221,27230
15080225,26883
15082226,27251
15084226,28985
15086229,28961
15088229,30043
15090229,30492
15092232,30790
15094235,31223
15096235,31030
15098238,31914
15100241,31448
15102244,30958
15104245,29969
15106248,28924
15108248,29048
15110250,27142
15112253,26743
15114257,26091
15116259,24246
15118260,24258
15120261,22928
15122262,23011
15124263,23035
15126266,22250
15128267,22530
15130268,22167
15132271,22230
15134272,22420
15136273,21782
15138275,21754
15140276,21557
15142278,21671
15144281,22794
15146282,22276
15148284,22718
15150288,22244
15152291,22209
15154291,22564
15156291,22280
15158295,22772
15160295,22663
15162298,22444
15164300,22574
15166301,22141
15168301,22766
15170304,22711
15172306,22332
15174307,22486
15176310,21409
15178311,21478
15180311,20908
15182314,20901
15184315,21334
15186315,21077
15188319,21278
15190322,21259
15192324,20920
15194326,21385
15196328,20493
15198328,18124
15200328,18029
15202332,17682
15204335,18482
15206337,17532
15208341,17760
15210344,18015
15212348,18628
15214349,19598
15216349,20325
15218350,22099
15220353,22137
15222356,21218
15224358,20571
15226361,20052
15228361,20162
15230364,18443
15232367,17538
15234369,17423
15236371,16574
15238371,16464
15240374,16287
15242374,16181
15244378,16666
15246378,16462
15248378,16510
15250382,16663
15252384,16207
15254386,16641
15256386,16507
15258386,16370
15260390,16659
15262390,16303
15264390,16619
15266390,16564
15268391,16371
15270391,17219
15272395,17074
15274396,17640
15276396,15451
15278397,14552
15280400,9109
15282404,13528
15284405,15930
15286407,36174
15288407,60392
15290411,63014
15292413,62954
15294415,45936
15296418,36039
15298419,6981
15300422,4363
15302425,3927
15304427,10893
15306427,14971
15308430,15988
15310432,16663
15312433,16358
15314435,16577
15316437,15845
15318440,15908
15320444,16317
15322447,15924
15324448,16521
15326449,16540
15328450,16954
15330450,17380
15332454,17070
15334455,16665
15336455,17391
15338457,17317
15340457,17750
15342460,17494
15344462,17649
15346464,18109
15348468,18459
15350471,19236
15352472,19322
15354472,19681
15356473,19914
15358476,19766
15360478,20873
15362480,20740
15364481,20849
15366481,21575
15368482,21260
15370485,22408
15372489,22776
15374491,22972
15376492,24246
15378493,24290
15380493,24989
15382497,25190
15384499,26129
15386500,26940
15388503,27006
15390504,28132
15392506,28079
15394506,28239
15396510,29194
15398513,28714
15400514,29400
15402517,28545
15404520,28368
15406520,27628
15408520,26369
15410522,26758
15412524,24761
15414527,24220
15416528,24139
15418528,22344
15420531,21970
15422531,21478
15424532,21602
15426533,21110
15428533,20519
15430537,20665
15432539,20441
15434539,20411
15436543,20619
15438547,19890
15440550,20231
15442553,20083
15444553,20677
15446555,20996
15448555,20511
15450555,20719
15452555,20425
15454555,20343
15456555,20952
15458557,20575
15460557,20936
15462558,20871
15464559,20579
15466559,20681
15468563,20492
15470567,20939
15472569,20887
15474570,20315
15476571,20643
15478571,20014
15480572,19535
15482574,19543
15484577,19447
15486577,19980
15488577,19645
15490580,19805
15492580,19906
15494581,19448
15496583,19936
15498585,20004
15500588,20153
15502590,20251
15504593,20057
15506597,20522
15508599,19737
15510602,20034
15512604,20346
15514608,20471
15516609,22782
15518610,23120
15520612,24661
15522612,24472
15524615,23685
15526617,22539
15528618,22238
15530619,22148
15532622,20349
15534626,18929
15536627,19161
15538628,18298
15540630,18027
15542634,18126
15544637,18016
15546638,18472
15548638,18314
15550640,18262
15552640,18501
15554642,18043
15556642,18455
15558642,18382
15560646,18164
15562648,18522
15564651,18086
15566651,18412
15568654,18386
15570655,18628
15572656,19265
15574658,19552
15576659,16904
15578663,15378
15580665,10020
15582665,16405
15584669,20553
15586670,39973
15588670,62984
15590674,62926
15592676,62952
15594680,46496
15596683,38032
15598685,7624
15600688,4851
15602691,5450
15604694,12053
15606696,17070
15608696,17973
15610696,18141
15612699,18514
15614699,18048
15616702,17719
15618703,17953
15620704,17786
15622708,18119
15624709,18096
15626710,18419
15628712,19089
15630715,18742
15632717,19146
15634717,18265
15636718,19523
15638718,19827
15640722,19055
15642725,19930
15644726,19717
15646727,20144
15648727,20886
15650727,20618
15652731,21724
15654735,21843
15656736,21935
15658736,22472
15660739,22878
15662739,23576
15664742,23405
15666746,23861
15668749,24367
15670749,24439
15672751,25874
15674754,26005
15676756,26810
15678756,27832
15680757,27377
15682759,28210
15684763,29331
15686766,29450
15688769,30843
15690771,30760
15692772,31585
15694773,31705
15696776,31991
15698778,32799
15700781,32320
15702782,32005
15704783,31553
15706786,30461
15708788,30048
15710790,28800
15712791,28015
15714793,26817
15716795,26221
15718798,25415
15720799,23564
15722799,23845
15724802,23759
15726802,23265
15728805,23482
15730808,22684
15732812,23205
15734813,23013
15736814,22746
15738814,22599
15740817,22040
15742817,22407
15744817,23275
15746820,23065
15748820,23594
15750822,22849
15752825,23083
15754825,23119
15756828,22976
15758832,23590
15760833,23160
15762835,23424
15764836,23332
15766840,22684
15768843,23568
15770846,23191
15772849,23434
15774851,23205
15776854,22509
15778854,22541
15780856,21589
15782858,21642
15784858,22115
15786858,21597
15788861,22141
15790862,21842
15792866,21957
15794866,22109
15796866,21630
15798867,19187
15800867,18321
15802871,18272
15804871,18809
15806875,18242
15808878,18142
15810879,18284
15812879,18400
15814882,19192
15816885,20270
15818888,21387
15820891,22678
15822893,21800
15824895,21634
15826896,19927
15828896,20255
15830897,19625
15832898,18206
15834898,17600
15836900,17001
15838903,16971
15840906,16331
15842908,16020
15844911,16659
15846914,16407
15848915,16612
15850915,16631
15852918,16555
15854919,17034
15856923,16790
15858926,16596
15860929,16594
15862932,16267
15864932,16661
15866935,16459
15868938,16558
15870939,17286
15872939,17151
15874942,18095
15876945,15192
15878949,13385
15880952,9004
15882980,14744
15884980,21660
15886983,36382
15888985,63524
15890986,62876
15892988,62918
15894992,41818
15896995,25014
15898995,6633
15900996,4260
15902999,5763
15904999,11317
15907000,15201
15909001,16445
15911004,16809
15913004,16465
15915005,16450
15917006,15539
15919006,16241
15921006,16148
15923009,16039
15925011,16640
15927015,16579
15929018,17317
15931021,17284
15933024,16902
15935024,17017
15937028,17690
15939031,17893
15941034,17620
15943038,17738
15945039,18234
15947039,18171
15949043,19051
15951046,19352
15953046,19494
15955049,19934
15957049,19808
15959049,20086
15961051,21212
15963054,20873
15965056,21388
15967059,21754
15969060,22195
15971061,22822
15973064,22900
15975068,24100
15977068,24360
15979071,25074
15981074,25339
15983074,24761
15985074,26650
15987074,26978
15989076,27562
15991076,28635
15993079,28108
15995080,29030
15997080,29452
15999081,29250
16001085,29595
16003086,28449
16005089,28519
16007089,27722
16009091,26596
16011091,26135
16013091,24788
16015094,24375
16017097,23572
16019099,22592
16021102,21953
16023106,21250
16025110,21818
16027114,21145
16029116,21056
16031118,20973
16033118,20461
16035121,21021
16037121,20839
16039121,20116
16041121,20297
16043123,19805
16045125,21267
16047128,21239
16049130,21099
16051131,21042
16053133,20486
16055136,20996
16057140,21333
16059142,21046
16061144,21370
16063145,20906
16065145,21194
16067146,20870
16069149,20991
16071152,21393
16073153,20882
16075154,20997
16077154,20551
16079156,19874
16081159,20000
16083162,19577
16085162,19859
16087165,19861
16089167,19542
16091168,19984
16093168,19631
16095169,19813
16097173,19861
16099175,19097
16101178,19557
16103180,19282
16105181,19426
16107182,19330
16109183,18725
16111184,19568
16113188,19555
16115191,20096
16117194,21888
16119196,22222
16121199,23903
16123203,23084
16125204,22247
16127204,21433
16129206,20864
16131209,20581
16133210,19366
16135214,18454
16137217,18117
16139221,17341
16141225,17405
16143225,17349
16145227,17574
16147227,17737
16149230,17308
16151233,17738
16153236,17620
16155236,17532
16157238,17757
16159241,17307
16161243,17712
16163243,17592
16165245,17542
16167248,17728
16169249,17303
16171252,18406
16173252,18678
16175255,18906
16177255,15806
16179258,12064
16181258,9687
16183258,16385
16185258,28435
16187261,39300
16189261,62861
16191262,62921
16193264,62943
16195264,41194
16197264,22822
16199264,6515
16201267,4148
16203267,8068
16205269,11724
16207269,16943
16209272,17128
16211273,17540
16213277,17582
16215278,17074
16217280,17018
16219282,16918
16221285,17441
16223286,17213
16225287,17468
16227288,18083
16229288,18053
16231290,18463
16233292,17951
16235295,17504
16237296,19106
16239296,18566
16241298,18828
16243299,19101
16245299,18993
16247299,19510
16249302,19908
16251306,20641
16253306,20916
16255306,20815
16257307,21390
16259311,21050
16261314,22266
16263314,22392
16265317,21967
16267321,23171
16269322,23167
16271323,23805
16273325,24829
16275325,24993
16277326,26110
16279329,26358
16281332,26902
16283334,27137
16285334,27957
16287334,29149
16289334,29005
16291334,30111
16293337,30594
16295338,30178
16297341,31189
16299342,30948
16301343,31299
16303345,30796
16305346,29381
16307346,29346
16309346,28306
16311348,27430
16313348,26806
16315348,25229
16317351,24874
16319353,24054
16321355,23070
16323357,23122
16325360,22614
16327363,22548
16329366,21969
16331369,21987
16333371,22052
16335373,21603
16337377,22159
16339378,21171
16341379,21230
16343382,21282
16345384,21861
16347387,22474
16349389,22189
16351390,21946
16353393,22100
16355393,21563
16357393,22468
16359397,22249
16361400,22247
16363402,22436
16365405,21740
16367406,22116
16369409,22215
16371411,22221
16373415,22424
16375417,21596
16377419,21694
16379420,21180
16381420,20802
16383420,21224
16385424,20843
16387424,21378
16389427,21283
16391429,21128
16393432,21375
16395435,20855
16397438,21374
16399440,21198
16401443,21180
16403446,21367
16405447,21185
16407447,21283
16409450,20817
16411453,21136
16413453,21871
16415453,21602
16417456,24098
16419459,25210
16421462,26006
16423462,25830
16425462,24025
16427462,23593
16429462,23436
16431465,21969
16433468,21416
16435472,19906
16437472,19849
16439475,19382
16441477,18649
16443480,19047
16445481,18746
16447481,19151
16449484,19057
16451487,18922
16453487,19557
16455491,19134
16457491,19483
16459494,19079
16461497,18863
16463500,19193
16465504,18774
16467508,19158
16469511,19039
16471513,19905
16473516,20731
16475516,20667
16477517,17242
16479520,12626
16481523,10365
16483525,18095
16485529,34461
16487529,42810
16489532,63036
16491534,62854
16493536,62978
16495537,43950
16497538,21050
16499541,7210
16501543,4563
16503546,10026
16505546,12605
16507546,18502
16509546,19113
16511549,19264
16513549,19197
16515553,18257
16517553,18434
16519555,18863
16521556,18660
16523559,18823
16525560,18797
16527563,19789
16529566,20190
16531569,19862
16533570,19850
16535572,19220
16537575,20852
16539579,20725
16541581,20186
16543584,21017
16545586,20988
16547589,21178
16549591,22041
16551592,22042
16553594,22854
16555595,22910
16557596,23243
16559599,23542
16561599,23965
16563602,24633
16565605,24418
16567606,25390
16569608,26179
16571610,25976
16573610,27181
16575612,27869
16577616,28261
16579617,29293
16581618,28955
16583618,29721
16585619,30838
16587623,31501
16589626,32310
16591628,32398
16593631,33621
16595635,33454
16597638,34038
16599642,34760
16601645,34086
16603645,33833
16605648,32324
16607649,32045
16609652,31195
16611655,29310
16613658,29452
16615659,27897
16617661,26888
16619663,26357
16621667,24859
16623667,25407
16625670,24957
16627673,24563
16629677,24294
16631679,23741
16633679,24310
16635679,23922
16637682,24160
16639682,23504
16641685,22864
16643685,23642
16645687,24256
16647688,24399
16649691,24599
16651694,23729
16653694,24298
16655697,23987
16657699,24383
16659701,24634
16661704,24046
16663704,24657
16665707,24092
16667708,24028
16669711,24603
16671714,24015
16673714,24712
16675717,24026
16677718,23539
16679721,23524
16681721,22322
16683723,23054
16685725,22976
16687725,22917
16689727,23172
16691727,22619
16693728,23208
16695731,23006
16697732,22874
16699732,21834
16701734,21275
16703737,21760
16705740,21963
16707743,21298
16709745,21405
16711748,21245
16713751,22412
16715753,22694
16717756,24379
16719759,26634
16721763,26630
16723764,26384
16725765,24723
16727765,23782
16729768,24314
16731769,22181
16733772,21715
16735774,20783
16737774,19745
16739775,19982
16741777,19276
16743779,19751
16745782,19791
16747783,19502
16749783,19933
16751785,19743
16753788,19724
16755790,19863
16757791,19423
16759791,19984
16761794,19778
16763795,19712
16765798,19964
16767798,19452
16769802,19920
16771804,20489
16773805,20768
16775805,21404
16777807,17576
16779809,12674
16781812,10757
16783812,18395
16785814,37675
16787816,44650
16789817,62972
16791817,62991
16793817,63063
16795819,45692
16797823,16404
16799823,7184
16801826,4519
16803829,10694
16805831,13313
16807835,18853
16809835,19793
16811839,19805
16813839,19518
16815840,19408
16817840,18861
16819840,19427
16821842,19527
16823842,19095
16825843,19906
16827846,20259
16829850,20494
16831850,20639
16833852,19547
16835853,20059
16837854,21087
16839855,20883
16841856,20996
16843858,20868
16845861,21662
16847864,21590
16849867,22432
16851870,23393
16853872,23063
16855876,23873
16857876,24067
16859879,23926
16861879,25400
16863881,24814
16865884,25332
16867886,26295
16869887,26482
16871889,27416
16873892,27749
16875895,29075
16877897,29340
16879899,29613
16881901,30257
16883901,29870
16885901,32054
16887903,32978
16889905,32659
16891908,34461
16893908,34113
16895911,34682
16897913,35375
16899916,35160
16901917,35856
16903920,34182
16905921,33562
